1.3664
1.3793
1.4051
1.3922
1.3922
1.3664
1.3535
1.4051
1.418
1.4051
1.418
1.4309
1.4051
1.3922
1.3664
1.3664
1.3664
1.3793
1.3922
1.3793
1.4051
1.4051
1.3922
1.3922
1.3922
1.418
1.418
1.3922
1.3535
1.3406
1.3535
1.3277
1.3148
1.302
1.3535
1.3664
1.3793
1.4051
1.4051
1.4566
1.4437
1.4051
1.3922
1.4309
1.418
1.3922
1.3793
1.3922
1.3535
1.3406
1.3535
1.3406
1.3277
1.3277
1.3535
1.418
1.4309
1.4051
1.418
1.4309
1.418
1.4051
1.3793
1.3793
1.3793
1.3664
1.3535
1.3664
1.3793
1.3664
1.3793
1.4051
1.4051
1.3922
1.3664
1.3664
1.3922
1.418
1.3922
1.3922
1.4051
1.3793
1.3793
1.3664
1.3535
1.4051
1.4051
1.3664
1.3664
1.3793
1.3793
1.3922
1.3922
1.4051
1.3664
1.3793
1.3793
1.3535
1.3922
1.4051
1.418
1.3922
1.3793
1.3664
1.3535
1.3535
1.3664
1.3535
1.3535
1.4051
1.418
1.4051
1.3922
1.3922
1.3922
1.3922
1.3664
1.3535
1.3664
1.3535
1.3535
1.3922
1.3922
1.3922
1.3793
1.3922
1.3664
1.3535
1.3535
1.3664
1.4051
1.3793
1.3535
1.3664
1.3664
1.3664
1.3664
1.4051
1.418
1.4051
1.3922
1.4051
1.4051
1.4051
1.4051
1.418
1.4051
1.3793
1.3793
1.3793
1.3664
1.3406
1.3535
1.3535
1.3277
1.3277
1.3406
1.3406
1.3793
1.418
1.3922
1.3922
1.3793
1.3406
1.3535
1.3664
1.3922
1.3793
1.3793
1.418
1.4051
1.3922
1.3922
1.3922
1.3793
1.3793
1.4051
1.3793
1.3922
1.418
1.418
1.3922
1.3793
1.3922
1.3793
1.3664
1.3922
1.3664
1.3664
1.3535
1.3535
1.3535
1.3664
1.3664
1.3664
1.3406
1.3664
1.3922
1.418
1.4309
1.418
1.4051
1.3793
1.3793
1.3793
1.4051
1.3922
1.3793
1.3793
1.4051
1.4051
1.3922
1.3793
1.3793
1.3922
1.3535
1.3793
1.3793
1.3664
1.3793
1.3793
1.3793
1.3793
1.3535
1.3535
1.3664
1.3922
1.3793
1.3406
1.302
1.2762
1.2891
1.3148
1.3406
1.3535
1.4309
1.3664
1.3535
1.3664
1.3793
1.3535
1.3664
1.4051
1.418
1.4309
1.4309
1.4437
1.418
1.4051
1.418
1.418
1.4051
1.3922
1.3793
1.3793
1.3793
1.3664
1.3535
1.3793
1.3922
1.3922
1.3922
1.3922
1.3793
1.3793
1.4051
1.3793
1.3793
1.3793
1.3922
1.3922
1.3922
1.3793
1.3793
1.3793
1.3793
1.3664
1.3664
1.3664
1.3664
1.3406
1.3148
1.3535
1.3406
1.302
1.2891
1.3148
1.3535
1.4051
1.4437
1.3793
1.3535
1.3922
1.3922
1.4309
1.4309
1.418
1.4437
1.4437
1.4309
1.3922
1.3664
1.3664
1.3793
1.3664
1.3793
1.3664
1.3793
1.3793
1.3793
1.3793
1.3922
1.4051
1.4051
1.3922
1.3793
1.3535
1.3406
1.3535
1.3406
1.3406
1.3535
1.3664
1.3793
1.3664
1.3406
1.3406
1.3535
1.4051
1.4309
1.4051
1.4051
1.3793
1.3535
1.3793
1.3922
1.3535
1.3406
1.3535
1.3664
1.3664
1.3535
1.3406
1.3664
1.4051
1.418
1.418
1.4051
1.4051
1.3922
1.3922
1.3922
1.3793
1.3793
1.3664
1.3793
1.3664
1.3664
1.3664
1.3535
1.3535
1.3664
1.3664
1.3793
1.4051
1.4051
1.4051
1.3793
1.3664
1.3922
1.3535
1.3406
1.3277
1.3535
1.3922
1.4051
1.3922
1.3793
1.3793
1.3922
1.4309
1.418
1.3922
1.3793
1.3664
1.3664
1.3664
1.3664
1.3793
1.3922
1.3664
1.3535
1.3664
1.3793
1.3922
1.4051
1.3922
1.3793
1.3922
1.3793
1.3793
1.3793
1.3793
1.3793
1.3922
1.3793
1.3793
1.3922
1.3793
1.3793
1.3535
1.3664
1.3793
1.3793
1.3664
1.3277
1.3148
1.3277
1.3148
1.3148
1.3406
1.3922
1.3922
1.3664
1.3406
1.302
1.3277
1.3535
1.3793
1.3793
1.3664
1.3922
1.418
1.3664
1.3535
1.3793
1.3664
1.3277
1.302
1.2633
1.2633
1.302
1.3535
1.3277
1.2762
1.3277
1.4824
1.4953
1.4051
1.3664
1.3406
1.2891
1.3148
1.3793
1.3535
1.3664
1.3793
1.3406
1.3406
1.3793
1.3406
1.2891
1.3406
1.3793
1.3664
1.3535
1.3406
1.4695
1.5727
1.5469
1.4695
1.4437
1.4824
1.4437
1.4309
1.3922
1.3793
1.3277
1.2891
1.2633
1.3148
1.3922
1.4566
1.5855
1.5469
1.4566
1.4695
1.534
1.4953
1.418
1.3793
1.3535
1.3406
1.3664
1.3793
1.3664
1.4051
1.4051
1.4437
1.4437
1.4309
1.418
1.3793
1.3793
1.3922
1.3793
1.3406
1.3277
1.3277
1.3148
1.3148
1.3148
1.3535
1.3922
1.4309
1.4051
1.4051
1.4566
1.4051
1.3664
1.4051
1.418
1.3793
1.4309
1.4695
1.4437
1.4437
1.4824
1.4695
1.4566
1.4695
1.4695
1.4566
1.4437
1.4566
1.418
1.4437
1.4695
1.418
1.3664
1.4051
1.4051
1.4309
1.3793
1.3406
1.3406
1.4051
1.4051
1.4051
1.3922
1.3406
1.3148
1.3277
1.2762
1.2117
1.2762
1.4309
1.5727
1.5984
1.5082
1.4051
1.4051
1.4437
1.4309
1.4695
1.4695
1.3664
1.3535
1.4437
1.4824
1.4309
1.4051
1.4051
1.3922
1.4309
1.4309
1.3793
1.302
1.3277
1.302
1.3664
1.3922
1.4051
1.3406
1.418
1.4566
1.4566
1.3922
1.4309
1.4309
1.4051
1.3793
1.3922
1.4309
1.4953
1.5469
1.6113
1.5855
1.5598
1.5855
1.5082
1.4695
1.4824
1.4824
1.4953
1.4437
1.3535
1.3535
1.3664
1.4051
1.4051
1.4309
1.4824
1.4824
1.4695
1.4309
1.418
1.4437
1.4566
1.4309
1.4309
1.4051
1.4437
1.4309
1.418
1.4566
1.4953
1.4437
1.4695
1.4695
1.4824
1.4309
1.418
1.3922
1.418
1.418
1.4437
1.4309
1.4051
1.4309
1.4051
1.3793
1.3793
1.3793
1.3664
1.4051
1.4051
1.418
1.3148
1.2891
1.2762
1.2633
1.3793
1.5469
1.4566
1.3535
1.3922
1.4566
1.4695
1.4309
1.3664
1.2117
1.0957
0.9926
0.9668
1.057
1.1344
1.2504
1.302
1.4437
1.4437
1.1344
0.9023
0.825
0.8637
0.9926
1.2762
1.6758
1.7016
1.6629
1.65
1.4437
1.1215
0.7863
0.7219
0.6445
0.6961
0.9281
1.0313
1.5598
1.8047
1.8305
1.6371
1.3664
1.4437
1.5082
1.418
1.1602
0.8895
0.8637
1.0313
1.1473
1.2504
1.3922
1.65
1.3535
1.5082
1.6629
1.6629
1.6242
1.6113
1.5211
1.4437
1.4051
1.4824
1.3922
1.3664
1.4437
1.1859
1.0184
1.1086
1.3148
1.4695
1.5469
1.534
1.4824
1.6371
1.6758
1.6113
1.5855
1.65
1.5598
1.3277
1.2891
1.418
1.3406
1.2762
1.3793
1.5082
1.4953
1.4309
1.302
1.3277
1.4309
1.4309
1.4051
1.4309
1.3922
1.2375
1.057
0.9152
0.7992
0.825
0.9797
1.3664
1.6629
1.7273
1.534
1.3406
1.2504
1.0957
1.1344
1.1602
1.1473
1.2375
1.3922
1.534
1.5211
1.3793
1.4437
1.6242
1.418
1.3277
1.5855
1.534
1.4051
1.2762
1.2246
1.1086
1.0828
1.0699
1.4051
1.5469
1.1859
1.0184
0.9797
0.8508
1.1602
1.4309
1.3922
1.6371
1.8434
1.65
1.2504
1.0699
1.0699
1.057
1.1086
1.1859
1.3148
1.5727
1.5082
1.2633
1.3664
1.3277
1.2891
1.4051
1.5598
1.4437
1.302
1.1473
1.3277
1.4824
1.65
1.6758
1.5598
1.4953
1.534
1.3922
1.1086
0.9539
0.7734
0.6832
0.5672
0.5672
0.7863
1.1215
1.302
1.2375
1.6242
1.5598
1.2117
1.2891
1.3277
1.2891
1.2762
1.3535
1.5984
1.5855
1.5855
1.6629
1.6113
1.6242
1.5984
1.4824
1.4309
1.2891
1.3406
1.5598
1.5469
1.4566
1.3535
1.2246
1.418
1.5855
1.4695
1.4824
1.5211
1.65
1.6887
1.5855
1.5984
1.4953
1.4051
1.3148
1.3664
1.4309
1.4309
1.3406
1.2246
1.2891
1.3664
1.302
1.2504
1.4566
1.5855
1.3922
1.4309
1.5727
1.4695
1.4309
1.2117
0.9152
0.7734
0.7348
0.9281
1.1473
1.2246
1.5211
1.6887
1.6242
1.6629
1.7273
1.8047
1.5469
1.1602
0.6187
0.2449
0.348
0.6832
1.3535
1.0699
1.1988
1.302
1.1473
1.2762
1.4309
1.3277
1.5469
1.5598
1.1602
1.3664
1.6629
1.4824
1.4051
1.5082
1.6113
1.8434
1.766
1.3406
0.9539
0.9023
0.9926
1.1988
1.6242
1.8047
1.9207
1.6758
1.3922
1.4824
1.6629
1.6371
1.6758
1.65
1.5211
1.4695
1.4953
1.4566
1.4437
1.4953
1.4437
1.3277
1.3793
1.3664
1.4051
1.3793
1.4309
1.418
1.3793
1.3793
1.3922
1.418
1.4695
1.5469
1.4566
1.5598
1.5211
1.3664
1.2633
1.173
1.173
1.2117
1.1473
1.0957
1.3148
1.418
1.3793
1.2891
1.3922
1.173
0.9926
0.9281
0.4125
0.0387
0.1418
0.825
1.4824
2.0754
2.2559
2.1527
1.4953
1.2504
1.4566
1.1602
0.7992
0.9152
1.1344
1.3406
1.4566
1.3922
0.941
0.9152
0.9152
1.1086
2.1656
2.475
2.0109
1.7145
1.5727
1.4953
1.5984
1.8176
1.8434
1.7531
1.7016
1.5855
1.5855
1.5727
1.418
1.4437
1.5855
1.4051
1.4309
1.5469
1.534
1.534
1.5855
1.6629
1.4824
1.3148
1.2375
1.173
1.3148
1.5855
1.7016
1.7016
1.766
1.4566
1.4695
1.6629
1.534
1.057
1.173
1.2375
1.3148
1.2633
1.302
1.3793
1.4051
1.1215
1.0699
0.941
0.9023
1.057
1.3406
1.4824
1.2117
0.9152
0.6445
0.8766
1.5211
1.3922
1.3406
0.8895
0.4254
0.5027
1.1086
1.0828
0.9281
0.9797
1.1215
2.0367
2.4879
1.8305
1.7789
1.7789
1.7531
1.9594
1.9465
1.534
1.057
1.057
1.0828
1.5082
1.5855
1.5082
1.6758
1.7789
1.6887
1.4566
1.4437
1.4051
1.4953
1.8305
1.8176
1.3922
1.2762
1.4051
1.3535
1.2762
1.4566
1.7789
1.8305
1.6887
1.4309
1.2891
1.2504
1.1859
1.3793
1.7016
1.7789
1.65
1.4824
1.4051
1.3922
1.4695
1.6887
1.7531
1.6113
1.4051
1.3406
1.4953
1.6371
1.5469
1.2117
0.9926
0.8895
0.9281
1.057
0.9281
0.9152
1.0055
1.1473
1.4695
1.534
1.5082
1.8047
1.1602
0.0
0.0
0.0
0.0
1.7531
2.9262
2.7328
2.127
1.5211
1.1473
1.2246
1.6758
1.8305
1.5211
1.3148
1.2762
1.173
1.5211
2.0883
1.9723
1.8047
1.8047
1.65
1.5855
1.5082
1.5727
1.5727
1.4309
1.2891
1.2891
1.0957
1.302
1.7273
1.8563
1.6371
1.6371
1.6887
1.7789
1.7531
1.6629
1.534
1.534
1.65
1.6113
1.7016
1.8047
1.5984
1.418
1.3793
1.3793
1.4309
1.4566
1.3922
1.3148
1.3922
1.3664
1.2633
1.2504
1.1344
0.8766
0.8508
1.1215
1.3277
1.2633
1.4051
1.7016
1.6758
1.882
1.8047
1.1988
1.0184
1.3148
1.2246
1.1859
1.2762
1.0055
0.4898
0.6574
0.941
1.1215
1.4695
1.7531
1.6758
1.8434
1.8047
1.4695
1.0313
0.5672
0.8895
0.9926
1.1988
2.243
2.6684
2.2559
2.1012
1.9078
1.65
1.7016
1.7145
1.3922
1.0441
0.9797
1.057
1.1215
1.7789
2.0367
1.8563
1.766
1.7402
1.8691
1.8691
1.882
1.65
1.5598
1.5469
1.5211
1.4953
1.3664
1.2246
1.3148
1.3148
1.302
1.3148
1.5727
1.7145
1.6113
1.6242
1.766
1.766
1.534
1.5469
1.7273
1.6371
1.3922
1.3277
1.418
1.4824
1.2504
1.173
1.3406
1.4437
1.5211
1.4309
1.3148
1.1344
1.1086
1.0828
0.9023
0.8637
1.0441
1.2117
1.3148
1.8434
1.9465
1.6887
1.3535
1.2762
1.2246
1.3922
1.3664
1.3148
1.302
1.4566
1.4309
1.4566
1.5727
1.65
1.3535
1.302
1.534
1.6887
1.7145
1.7531
1.6371
1.5469
1.5469
1.6113
1.4824
1.3793
1.5211
1.8434
1.8305
1.6371
1.4695
1.2633
1.0828
1.2246
1.4566
1.5598
1.7273
1.9723
2.2301
1.9852
1.7016
1.6629
1.4437
1.3406
1.3793
1.3793
1.4309
1.5598
1.7531
1.9207
1.7402
1.6629
1.3664
1.3535
1.4437
1.3793
1.2762
1.4953
1.4566
1.5082
1.7145
1.8047
1.7273
1.7531
1.7789
1.7273
1.302
0.9926
1.0313
0.9152
1.173
1.4824
1.3535
1.2762
1.1344
0.825
0.8766
1.3277
1.1859
1.3148
1.6371
1.5082
1.4051
1.7789
1.9336
1.8305
1.7145
1.534
1.302
1.2504
1.4953
1.5984
1.6113
1.6758
1.5211
1.4953
1.6371
1.9336
1.9078
1.7016
1.6242
1.7016
1.7531
1.7145
1.6629
1.6113
1.6113
1.6113
1.5598
1.5082
1.5469
1.3535
1.0699
0.941
1.0313
1.302
1.6629
1.8176
2.0625
1.9852
1.7145
1.5727
1.6242
1.7145
1.5984
1.5727
1.5727
1.4824
1.5211
1.6758
1.7531
1.8949
1.9336
1.5082
1.2504
1.4309
1.4953
1.4309
1.534
1.6887
1.6629
1.5469
1.4309
1.4566
1.4824
1.3793
1.3922
1.3277
1.0441
0.709
0.8121
0.9668
1.5469
2.0238
2.359
2.1398
1.65
1.534
1.534
1.534
1.5855
1.5082
1.4953
1.5211
1.3406
1.2246
1.2633
1.418
1.4695
1.5855
1.4953
1.3148
1.302
1.3922
1.3793
1.7918
2.0238
2.1527
1.9465
1.7273
1.7145
1.8305
1.8047
1.6887
1.5984
1.534
1.534
1.5211
1.418
0.9797
0.6574
0.6059
0.5672
0.8508
1.882
2.2559
2.3977
2.3977
2.2559
2.1012
1.8691
1.6758
1.4953
1.4824
1.5598
1.4953
1.4437
1.4309
1.4566
1.5211
1.6629
1.7789
1.6242
1.5984
1.3922
1.2246
1.5082
1.7273
1.8434
1.8305
1.7918
1.7531
1.5211
1.3922
1.2117
1.1344
1.3535
1.4566
1.3793
0.941
1.0055
1.5082
1.7402
1.9852
1.8691
1.7016
1.882
1.8305
1.6113
1.4824
1.2504
1.2891
1.3277
1.2633
1.3664
1.2762
0.8895
0.8637
0.9281
1.1859
1.7273
1.9852
2.0109
1.9723
1.9594
1.7531
1.4953
1.3793
1.5082
1.5984
1.6242
1.5469
1.4695
1.5211
1.534
1.4824
1.5727
1.7145
1.8176
1.8305
1.8949
1.8047
1.6887
1.6758
1.6629
1.5598
1.5082
1.5082
1.7016
1.7402
1.6629
1.6758
1.7918
1.8047
1.65
1.7016
1.6887
1.6113
1.6371
1.6629
1.5082
1.2375
1.0313
0.8379
0.4254
0.8379
1.8949
2.1012
1.9465
2.0625
1.998
1.9723
1.8563
1.7531
1.7918
1.7402
1.5855
1.4051
1.2762
1.5211
1.6242
1.6113
1.6629
1.7016
1.4695
1.3406
1.302
1.2633
1.3148
1.4437
1.6371
1.7531
1.6887
1.4566
1.2762
1.3277
1.5598
1.6371
1.7918
1.882
1.6629
1.7789
1.8305
1.7531
1.7016
1.6758
1.5469
1.3148
1.0828
0.9797
0.8508
0.9023
1.0441
1.2633
1.7789
2.4105
2.1141
1.6113
1.4566
1.4566
1.5727
1.7016
2.0625
2.127
1.8691
1.7273
1.5984
1.65
1.766
1.6371
1.5082
1.4953
1.5727
1.6758
1.65
1.6113
1.8949
2.0238
1.7918
1.6629
1.5984
1.4566
1.4051
1.3406
1.2762
1.2891
1.3793
1.4953
1.418
1.7145
1.8434
1.9465
1.7918
1.8434
1.7402
1.5082
1.4437
1.534
1.4695
1.6242
1.766
1.9336
1.8691
1.65
1.5727
1.534
1.6371
1.6371
1.5211
1.4437
1.4437
1.4953
1.2375
1.4566
1.4953
1.534
1.7016
1.6371
1.1859
1.1215
1.1215
1.2117
1.6242
1.7918
1.9207
1.7145
1.2891
1.2504
1.3664
1.6242
1.5855
1.766
1.7273
1.7531
1.8176
1.7145
1.6887
1.6113
1.3922
1.4437
1.6887
1.6242
1.4824
1.3277
1.2633
1.1086
1.1988
1.4695
1.6371
1.65
1.882
1.998
1.8305
1.8305
1.8176
1.65
1.5598
1.5855
1.5855
1.534
1.7918
1.7145
1.5469
1.4437
1.7273
1.9594
2.0109
1.8305
1.6887
1.6242
1.4695
1.3277
1.302
1.5727
2.0625
2.0367
1.9594
1.8305
1.7402
1.8047
1.6242
1.5469
1.5727
1.5984
1.6113
1.4824
1.3664
1.3664
1.3277
1.3922
1.3793
1.418
1.4309
1.5598
1.3664
1.3277
1.5984
1.5082
1.418
1.4953
1.6758
1.7273
1.9078
2.0238
1.8047
1.7016
1.534
1.4824
1.3793
1.4051
1.4566
1.3148
1.2375
1.5082
1.6887
1.5727
1.4566
1.4051
1.3535
1.418
1.7273
1.9078
1.882
1.7016
1.5984
1.6629
1.7402
1.8047
1.9207
1.7789
1.766
1.7273
1.7145
1.6113
1.4824
1.4953
1.5727
1.7145
1.5855
1.4953
1.4309
1.418
1.5469
1.6629
1.6758
1.6113
1.7016
1.8305
1.6887
1.7273
1.6629
1.6242
1.5984
1.5469
1.6113
1.6371
1.6758
1.7918
1.7531
1.5855
1.534
1.7016
1.7789
1.7273
1.7402
1.7145
1.5469
1.5211
1.5211
1.6758
1.4437
1.4824
1.534
1.3922
1.3664
1.4695
1.534
1.4309
1.766
1.9207
1.7789
1.7789
1.5211
1.173
1.3922
1.7273
1.8305
1.7273
1.6887
1.5598
1.1988
1.0055
1.2504
1.302
1.2891
1.8691
2.0883
1.8305
1.8305
1.9852
1.8305
1.5984
1.6758
1.5727
1.4566
1.4824
1.5082
1.5855
1.534
1.6758
1.998
1.8176
1.534
1.3664
1.5211
1.5598
1.5984
1.7402
1.6887
1.7145
1.6113
1.4566
1.3664
1.3793
1.4437
1.5598
1.9723
2.0625
1.9078
1.8305
1.882
1.8949
1.9078
1.7273
1.4309
1.2762
1.4309
1.6242
1.7016
1.7531
1.7273
1.6887
1.7402
1.766
1.7918
1.8691
1.8949
1.8176
1.6629
1.6242
1.7402
1.6887
1.4566
1.3922
1.2117
1.302
1.3922
1.6758
1.882
1.8949
1.65
1.5082
1.5727
1.6242
1.4953
1.2891
1.1215
1.2504
1.4695
1.3793
1.3793
1.5598
1.5727
1.3793
1.0957
0.941
0.9281
1.418
1.882
2.0754
1.7531
1.8949
1.8949
1.9852
2.1012
1.9336
1.8176
1.6758
1.4824
1.1086
1.302
1.5727
1.8305
1.7789
1.7402
1.5984
1.5082
1.7789
1.8563
1.7145
1.8434
1.8563
1.8047
1.9078
1.8691
1.7789
1.8176
1.8047
1.7531
1.5984
1.3664
1.4566
1.3793
1.3793
1.534
1.6113
1.7145
1.8949
1.8047
1.7016
1.5211
1.6242
1.7145
1.6371
1.65
1.7918
1.6371
1.4566
1.4824
1.4566
1.418
1.4309
1.5984
1.7016
1.7273
1.7918
1.8563
1.9207
1.8434
1.5211
1.3664
1.1859
1.173
1.3793
1.4051
1.7402
1.8305
1.9852
1.9078
1.882
1.8434
1.8176
1.5469
1.4437
1.5082
1.4824
1.6629
1.7016
1.5211
1.5469
1.6113
1.7531
1.7273
1.6629
1.5855
1.7145
1.4953
1.2762
1.0055
0.9152
1.1859
1.6758
1.8691
1.9336
2.0109
1.9078
1.7402
1.6629
1.6371
1.7145
1.8047
1.8305
1.766
1.6887
1.6887
1.5211
1.4309
1.173
0.9668
1.2375
1.2375
1.4824
1.8691
1.9723
1.9207
2.0109
1.9852
1.7531
1.6113
1.7016
1.7918
1.8691
1.5211
1.418
1.6371
1.8691
1.7016
1.8563
1.8691
1.7531
1.5984
1.5727
1.7273
1.7016
1.6242
1.65
1.5984
1.5984
1.5469
1.6371
1.7531
1.65
1.6887
1.8305
1.8305
1.7145
1.7145
1.8563
1.7531
1.5984
1.6242
1.8434
2.127
2.0754
1.5598
1.1344
1.0957
1.3406
1.3793
1.2762
1.2246
1.0957
1.1988
1.2375
1.4437
1.7016
1.8305
1.7531
1.4566
1.0957
1.0441
0.9668
1.2762
1.7016
1.9336
2.1785
2.4105
1.9465
1.534
1.5598
1.6242
1.6887
1.8176
1.766
1.6758
1.5598
1.5469
1.5727
1.9594
2.1141
1.9594
1.7531
1.8434
1.8176
1.8691
1.8563
1.7273
1.8434
1.8434
1.766
1.9336
1.7918
1.5984
1.6887
1.766
1.5855
1.4437
1.5598
1.5984
1.6113
1.6629
1.5984
1.6371
1.6113
1.766
1.882
1.766
1.65
1.6242
1.766
1.7918
1.7531
1.6113
1.65
1.766
1.5855
1.3793
1.418
1.5727
1.6371
1.8176
1.7789
1.6629
1.8047
1.8434
1.7918
1.766
1.65
1.6371
1.5469
1.7016
1.9723
1.7789
1.5211
1.3922
1.4051
1.4437
1.4566
1.6242
1.7789
1.7145
1.4566
1.173
1.0313
1.0957
1.2246
1.4953
2.0625
1.9336
1.7016
1.6113
1.8563
1.9594
1.9078
1.882
1.9078
2.0238
1.9078
1.8176
1.7273
1.7016
1.5469
1.3406
1.4051
1.6887
1.7016
1.5598
1.5469
1.6887
1.6887
1.7531
1.9207
1.8691
1.7273
1.65
1.7145
1.766
1.7402
1.7016
1.6242
1.5598
1.6242
1.8305
1.9336
1.8305
1.8176
1.766
1.6629
1.6242
1.7273
1.7273
1.9207
1.882
1.6242
1.4824
1.5082
1.4695
1.5082
1.6113
1.6371
1.65
1.6887
1.7273
1.7145
1.6758
1.7145
1.7531
1.766
1.7402
1.7402
1.5855
1.6371
1.534
1.65
1.7273
1.5727
1.4309
1.3535
1.2762
1.3922
1.4824
1.534
1.5082
1.4953
1.5082
1.418
1.2375
1.418
1.6371
1.5984
1.6887
1.9465
2.0496
1.8305
1.8305
1.7789
1.8047
1.7789
1.7145
1.766
1.8176
1.6887
1.6371
1.766
1.9207
1.8691
1.8691
1.9078
1.8563
1.7789
1.8047
1.8176
1.7531
1.6371
1.5855
1.4437
1.1602
1.3148
1.6629
1.7016
1.6887
1.8176
1.7918
1.7145
1.7402
1.8305
1.6887
1.65
1.65
1.6242
1.6758
1.6371
1.8563
1.7918
1.5855
1.4309
1.534
1.5855
1.5469
1.4695
1.5598
1.7016
1.6887
1.6758
1.5598
1.4953
1.6242
1.7918
1.7789
1.6758
1.5855
1.65
1.6371
1.5211
1.4437
1.4309
1.4824
1.5727
1.5082
1.7273
2.0367
1.9852
1.9465
1.9207
1.9336
1.9336
1.766
1.5855
1.4953
1.534
1.65
1.7273
1.7145
1.6887
1.6113
1.6113
1.65
1.4309
1.534
1.7402
1.766
1.7402
1.7531
1.7402
1.6113
1.6242
1.6758
1.6242
1.5727
1.6242
1.6113
1.5855
1.3922
1.3535
1.5211
1.9207
1.998
1.9852
1.9723
1.998
1.9078
1.6371
1.5598
1.4566
1.3793
1.3664
1.5598
1.5598
1.5598
1.6629
1.6887
1.7016
1.7273
1.6629
1.7402
1.7531
1.7531
1.7789
1.7145
1.7402
1.7016
1.6629
1.6371
1.5984
1.5469
1.5469
1.6371
1.5598
1.4824
1.302
1.2246
1.5598
1.8949
2.0754
1.9594
1.8691
1.8434
1.7789
1.6242
1.5598
1.5469
1.4695
1.4695
1.5727
1.7145
1.7531
1.766
1.7273
1.7273
1.6242
1.5469
1.7016
1.7145
1.8305
1.8434
1.6758
1.5598
1.6113
1.8047
1.882
1.8949
1.766
1.5598
1.4437
1.4309
1.4309
1.4437
1.5082
1.7145
1.8047
1.7918
1.6629
1.6887
1.8176
1.7789
1.65
1.6113
1.5082
1.5855
1.6887
1.8563
1.7145
1.5469
1.5855
1.534
1.5082
1.5855
1.4566
1.4437
1.5984
1.5984
1.65
1.8305
1.766
1.65
1.8305
1.998
2.0109
1.766
1.6242
1.7531
1.7145
1.7145
1.8047
1.7531
1.6242
1.7402
1.7016
1.4695
1.5598
1.7145
1.7145
1.4566
1.4566
1.6371
1.6758
1.7402
1.7531
1.7918
1.6113
1.5082
1.5727
1.418
1.4309
1.6887
1.7918
1.7531
1.7273
1.766
1.7273
1.7402
1.7273
1.7789
1.8176
1.7789
1.6887
1.6629
1.5727
1.5598
1.6113
1.7531
1.7789
1.7402
1.7273
1.7016
1.6629
1.6113
1.5727
1.5855
1.5855
1.5727
1.6758
1.5598
1.5211
1.4953
1.302
1.3406
1.7016
1.7531
1.8434
1.9465
2.0109
1.9594
1.766
1.7531
1.7016
1.6758
1.6113
1.5727
1.5727
1.6758
1.7016
1.5984
1.4051
1.4566
1.6113
1.6629
1.5469
1.7273
1.8434
1.8305
1.7402
1.5984
1.766
1.8305
1.882
1.8563
1.8434
1.7918
1.7789
1.7273
1.534
1.4695
1.5469
1.6371
1.6887
1.7531
1.7402
1.6758
1.6371
1.6113
1.5984
1.5598
1.5727
1.6629
1.6758
1.65
1.6629
1.6758
1.5855
1.534
1.4824
1.6629
1.8563
1.8434
1.7145
1.6887
1.6113
1.5727
1.6113
1.6242
1.6242
1.5855
1.5469
1.5727
1.418
1.4309
1.5211
1.6758
1.8434
1.7016
1.5598
1.6887
1.8047
1.7273
1.6242
1.7789
1.7789
1.5855
1.4824
1.534
1.6242
1.65
1.8176
1.9207
1.9207
1.882
1.8176
1.7016
1.7531
1.7531
1.7789
1.7789
1.6887
1.6371
1.6371
1.6371
1.6758
1.6113
1.6629
1.65
1.7145
1.766
1.7016
1.534
1.4695
1.5082
1.5211
1.5211
1.5984
1.7531
1.7145
1.5855
1.534
1.766
1.8691
1.8691
1.8691
1.766
1.7016
1.65
1.6629
1.6371
1.5598
1.5082
1.4309
1.4953
1.7273
1.6758
1.5598
1.6113
1.6242
1.7402
1.7531
1.8305
1.8305
1.7145
1.6113
1.6371
1.7273
1.766
1.766
1.766
1.766
1.6629
1.6242
1.4824
1.302
1.3277
1.4824
1.3277
1.1988
1.1086
1.1988
1.4309
1.534
1.7531
1.8949
2.1527
2.0883
1.8563
1.7789
1.8434
1.8434
1.7145
1.6887
1.7531
1.8305
1.7016
1.5855
1.4695
1.3922
1.4309
1.4437
1.6758
1.8691
1.766
1.6629
1.6371
1.7789
1.6887
1.6371
1.7273
1.8047
1.7273
1.7789
1.766
1.7016
1.6371
1.5727
1.5598
1.6242
1.5598
1.3277
1.418
1.4437
1.3535
1.7145
1.8434
1.6887
1.6629
1.7145
1.7145
1.7273
1.7402
1.8047
1.8305
1.8047
1.6887
1.5984
1.7273
1.7789
1.5855
1.4437
1.4309
1.2633
1.1215
1.3148
1.7145
1.998
2.0496
2.0496
1.8434
1.8563
1.8434
1.7531
1.7145
1.7145
1.7402
1.8047
1.7918
1.7789
1.7789
1.6371
1.5984
1.5211
1.4051
1.3922
1.5469
1.7273
1.8691
1.8434
1.8047
1.8305
1.8305
1.7918
1.7918
1.6371
1.5211
1.5984
1.534
1.3793
1.2891
1.418
1.7531
1.882
1.8176
1.7016
1.6242
1.5984
1.5469
1.5082
1.5211
1.5598
1.5727
1.5469
1.6242
1.7789
1.882
1.9336
1.7531
1.65
1.6371
1.6758
1.6887
1.766
1.7145
1.5598
1.5469
1.6629
1.5469
1.4566
1.5598
1.5855
1.6113
1.65
1.7145
1.8047
1.7789
1.7531
1.7273
1.65
1.6758
1.6887
1.7273
1.65
1.5855
1.5211
1.6113
1.6113
1.3922
1.4695
1.4824
1.4695
1.5984
1.8563
1.9723
1.8563
1.882
1.766
1.5727
1.6113
1.65
1.8047
1.9078
1.8949
1.8434
1.8305
1.7918
1.6629
1.5598
1.6371
1.6113
1.4953
1.4953
1.65
1.5727
1.534
1.7918
1.8949
1.8047
1.7016
1.6371
1.6371
1.7402
1.7402
1.5984
1.3793
1.302
1.3664
1.3406
1.5211
1.5855
1.3922
1.5082
1.8176
1.9078
1.8047
1.9078
1.9078
1.7918
1.7918
1.8305
1.8047
1.7531
1.8305
1.6887
1.4824
1.3406
1.2633
1.2762
1.2633
1.4566
1.7918
1.8047
1.7402
1.766
1.8563
1.7789
1.5984
1.4051
1.2375
1.2891
1.4437
1.4695
1.7273
1.9723
1.9852
1.8691
1.7531
1.8434
1.8563
1.7789
1.65
1.8563
1.8305
1.5727
1.5727
1.4953
1.4953
1.6371
1.6887
1.6371
1.7531
1.8047
1.6887
1.6113
1.65
1.6242
1.6113
1.5984
1.5598
1.6887
1.7273
1.7918
1.8047
1.8305
1.7531
1.6887
1.6887
1.5727
1.5082
1.6758
1.6371
1.5469
1.6371
1.65
1.5211
1.5598
1.5855
1.6371
1.7273
1.7531
1.7918
1.7402
1.6758
1.7016
1.7273
1.6113
1.4566
1.4051
1.4309
1.4437
1.3535
1.3922
1.6242
1.9207
1.9078
1.7145
1.5598
1.6371
1.6887
1.5211
1.5082
1.7402
1.8047
1.6758
1.5727
1.5984
1.7016
1.5984
1.65
1.7145
1.7402
1.7273
1.7145
1.766
1.7145
1.7918
1.9852
1.9336
1.8047
1.5984
1.5211
1.534
1.5727
1.5469
1.5082
1.65
1.7789
1.6371
1.6371
1.5984
1.5727
1.5598
1.6758
1.5984
1.7402
1.8305
1.7789
1.8047
1.8305
1.7531
1.7273
1.8176
1.7145
1.5855
1.534
1.5082
1.5469
1.4437
1.1988
1.1473
1.4309
1.5727
1.6113
1.8434
1.9078
1.8434
1.65
1.5727
1.418
1.4437
1.7531
1.9207
1.9078
1.7402
1.4566
1.0828
1.2117
1.4695
1.766
1.9594
2.1785
2.0625
1.9078
1.5598
1.4695
1.3793
1.2375
1.4566
1.4695
1.6113
1.6887
1.6242
1.7145
1.9078
1.9078
1.7789
1.7016
1.7145
1.7789
1.8176
1.6371
1.5469
1.3406
1.2891
1.418
1.3793
1.2375
1.3922
1.6887
1.8434
1.7789
1.9336
1.9465
1.7918
1.4953
1.3535
1.2891
1.4566
1.6371
1.8691
1.9723
1.8305
1.5984
1.6371
1.7918
1.65
1.4695
1.3277
1.2504
1.3148
1.5855
1.8176
2.0109
1.8563
1.6887
1.6887
1.8047
1.7402
1.7016
1.5984
1.6242
1.4953
1.4953
1.65
1.7016
1.766
1.766
1.5082
1.4309
1.6242
1.7273
1.7273
1.7918
1.8691
1.8176
1.8563
1.7402
1.6371
1.4695
1.3664
1.1602
1.2762
1.4953
1.6242
1.6242
1.6113
1.8176
1.9852
1.5855
1.3664
1.2246
1.3406
1.5211
1.4695
1.6371
1.8176
1.8047
2.0496
1.8176
1.5211
1.5598
1.6242
1.7145
1.8434
1.8305
1.6758
1.4953
1.534
1.4051
1.2375
1.0055
0.9668
1.2246
1.4437
1.7145
1.9723
2.0496
1.8047
1.766
1.7402
1.5727
1.4051
1.5082
1.6758
1.7789
1.8691
1.882
1.6629
1.4437
1.2633
1.4695
1.766
1.65
1.6629
1.8305
1.7145
1.5598
1.5598
1.6371
1.7273
1.6758
1.5469
1.4953
1.6758
1.65
1.4437
1.4566
1.5855
1.8305
1.7918
1.766
1.6887
1.7145
1.6371
1.4824
1.534
1.534
1.6113
1.4566
1.4824
1.5727
1.418
1.5727
1.5211
1.3922
1.3277
1.4437
1.3793
1.3148
1.2891
1.173
1.3922
1.7531
2.1527
2.3848
2.0883
2.0496
2.0496
1.9207
1.7016
1.7145
1.6113
1.3793
1.534
1.5855
1.6113
1.6242
1.5469
1.4566
1.5211
1.534
1.8047
1.8434
1.7273
1.5984
1.6758
1.7918
1.6371
1.6758
1.7145
1.6629
1.6371
1.4437
1.4309
1.5855
1.5727
1.4953
1.1344
1.3277
1.4953
1.6113
1.9336
2.0496
1.998
1.882
1.8176
1.6887
1.6242
1.4953
1.2504
1.2117
1.0441
0.9797
0.9797
1.2891
1.7402
1.998
1.8563
1.7789
1.6758
1.6629
1.9594
2.1012
1.9336
1.5855
1.6371
1.8176
1.8563
1.6887
1.6113
1.4437
1.4695
1.5211
1.4051
1.3922
1.4437
1.4566
1.3664
1.5727
1.7145
1.65
1.7402
1.882
1.8047
1.6242
1.534
1.5855
1.7402
1.534
1.4566
1.3922
1.1473
1.0957
1.534
1.7531
1.8691
1.8563
1.9723
1.9723
2.0625
1.882
1.6242
1.766
1.6758
1.534
1.6629
1.534
1.4824
1.5855
1.7016
1.7145
1.7016
1.766
1.6113
1.4953
1.5211
1.3922
1.4566
1.6371
1.6371
1.8176
1.9852
1.8176
1.8434
1.7016
1.6242
1.5984
1.5469
1.5855
1.6242
1.6629
1.4051
1.2762
1.3793
1.3922
1.4051
1.4309
1.6113
1.7531
1.7273
1.7145
1.6758
1.5984
1.5211
1.3922
1.4051
1.5598
1.6113
1.2762
1.173
1.4309
1.6371
1.8949
1.8949
1.882
1.8434
1.8691
1.8305
1.9336
2.0238
2.0367
1.9078
1.7016
1.4824
1.2375
1.3148
1.5984
1.7402
1.6758
1.7145
1.6113
1.3922
1.4309
1.5211
1.418
1.5727
1.6629
1.5469
1.5727
1.418
1.4437
1.3664
1.4566
1.6242
1.9336
2.0238
2.2816
2.243
1.9594
1.534
1.1602
1.3406
1.418
1.3406
1.4695
1.3664
1.3793
1.6371
1.9465
1.9465
1.8949
1.9207
1.8691
1.6887
1.5082
1.4953
1.5082
1.6113
1.7402
1.7145
1.6887
1.6629
1.6113
1.4566
1.3148
1.3793
1.6113
1.7531
1.8176
1.7273
1.7145
1.5727
1.4953
1.5855
1.4309
1.418
1.5082
1.5855
1.6242
1.8691
1.5082
1.4953
1.7145
1.8047
1.6758
1.7789
1.7145
1.534
1.3922
1.3664
1.3535
1.5598
1.65
1.6371
1.7273
1.8691
1.8305
1.7789
1.9852
1.9336
2.0238
1.9207
1.8047
1.7789
1.5984
1.1344
1.1215
1.2633
1.5469
1.766
1.65
1.6113
1.5727
1.5727
1.5082
1.5727
1.766
1.9723
2.0109
1.7016
1.2891
1.2633
1.3277
1.4051
1.5727
1.3148
1.6242
2.1398
2.1914
2.0625
1.9852
1.5855
1.4309
1.4051
1.4437
1.5211
1.5984
1.6629
1.6629
1.6887
1.7402
1.5469
1.2375
1.1602
1.1344
1.2633
1.6371
2.0238
2.0109
2.0238
1.9336
1.8176
1.5855
1.418
1.5984
1.7531
1.7145
1.6113
1.4824
1.418
1.4309
1.65
1.7531
1.4695
1.3406
1.3535
1.1859
1.2762
1.7016
1.882
1.5727
1.5082
1.6758
1.6629
1.5855
1.7789
2.0754
2.127
1.9465
1.8434
1.7273
1.7402
1.8434
1.6758
1.4695
1.6371
1.7918
1.766
1.7273
1.6887
1.5984
1.5211
1.4953
1.5211
1.6371
1.6629
1.4824
1.4824
1.6758
1.8563
1.766
1.8691
1.766
1.65
1.4437
1.4824
1.5598
1.6371
1.7016
1.7531
1.6887
1.6629
1.7145
1.8305
1.882
1.7531
1.6758
1.5727
1.418
1.3277
1.2246
1.1859
1.2246
1.4309
1.5855
1.6629
1.6371
1.8691
1.882
1.7273
1.7531
1.6371
1.534
1.3922
1.418
1.4437
1.4309
1.6629
1.9465
1.8176
1.5211
1.2633
1.3922
1.4051
1.9336
2.1398
1.7145
1.4824
1.6629
1.7016
1.7016
1.65
1.6629
1.5598
1.534
1.5855
1.5855
1.4437
1.3664
1.3793
1.4824
1.7016
1.766
1.7145
1.6758
1.6113
1.7016
1.7918
1.766
1.7273
1.6629
1.6887
1.7918
1.7016
1.6629
1.5727
1.6113
1.6242
1.7016
1.7402
1.7402
1.7273
1.6371
1.5082
1.5469
1.6629
1.5469
1.5469
1.5855
1.766
1.766
1.5469
1.4437
1.4566
1.4824
1.5855
1.4953
1.65
1.8176
1.7918
1.7402
1.65
1.5598
1.4566
1.3793
1.3406
1.4437
1.6242
1.7402
1.7273
1.4695
1.3664
1.6113
1.6371
1.7145
1.7918
1.8434
1.4953
1.418
1.5855
1.7789
1.7789
1.8305
1.8434
1.7918
1.766
1.6758
1.5984
1.4695
1.1988
1.2504
1.3148
1.2891
1.2891
1.4566
1.65
1.7016
1.7016
1.6371
1.6629
1.6758
1.8047
2.0109
1.9465
1.8176
1.6113
1.5082
1.4695
1.5211
1.534
1.6371
1.5082
1.4953
1.5984
1.6629
1.8047
1.8305
1.8305
1.8047
1.7402
1.6371
1.5855
1.4566
1.4566
1.4695
1.5984
1.7402
1.766
1.6629
1.5984
1.5211
1.6113
1.5984
1.7016
1.7918
1.8691
1.7789
1.7918
1.7918
1.7402
1.6629
1.5598
1.5211
1.4566
1.3922
1.6113
1.766
1.6758
1.5211
1.4309
1.5082
1.5082
1.4566
1.534
1.6113
1.6113
1.6629
1.7789
1.6758
1.5984
1.4953
1.4051
1.4437
1.5469
1.302
1.3148
1.6629
1.9336
1.9852
1.8563
1.766
1.6242
1.6242
1.6242
1.5727
1.4953
1.5855
1.4824
1.2762
1.2633
1.2891
1.3277
1.6113
1.8176
1.6887
1.4051
1.4953
1.5598
1.8305
1.9465
1.8691
1.534
1.3406
1.5082
1.5855
1.5855
1.4953
1.5469
1.7145
1.6887
1.5082
1.4437
1.3277
1.4051
1.8047
1.9594
1.8434
1.7531
1.7918
1.7789
1.766
1.7531
1.6887
1.5598
1.6371
1.8434
1.8176
1.6242
1.4309
1.4309
1.4051
1.5082
1.6113
1.5211
1.3535
1.1473
1.1473
1.0828
1.3535
1.5984
1.5855
1.4309
1.2891
1.2117
1.2375
1.2375
1.6758
1.3406
0.6574
0.6961
1.057
1.302
1.8047
2.5652
2.3074
2.3461
2.1527
1.9723
1.8563
1.8691
1.9723
1.882
1.8047
1.8176
1.6758
1.6242
1.418
1.0699
1.0441
1.173
1.4566
1.8176
2.0754
1.7016
1.5469
1.5984
1.6242
1.65
1.6629
1.6887
1.7016
1.7531
1.7918
1.8176
1.65
1.6113
1.3922
1.3664
1.6242
1.766
1.7273
1.7273
1.7273
1.6371
1.6371
1.5984
1.5469
1.4566
1.3406
1.302
1.3277
1.3535
1.3406
1.5469
1.7531
1.5855
1.1215
1.0055
1.0313
1.1215
1.2633
1.3922
1.4824
1.6371
1.8047
1.7918
1.6758
1.8563
1.8176
1.6887
1.6629
1.4953
1.5598
1.8176
1.7016
1.4051
1.3406
1.3664
1.1988
1.2117
1.4824
1.5984
2.0109
2.1914
1.9336
1.7145
1.4051
1.3793
1.4309
1.5211
1.6629
2.1012
2.1141
1.7402
1.4566
1.3535
1.3664
1.5855
1.7016
1.5855
1.7918
1.8047
1.6113
1.65
1.7402
1.7789
1.7402
1.6371
1.4953
1.3922
1.5727
1.6113
1.5469
1.418
1.7402
1.7402
1.6371
1.6758
1.766
1.7531
1.6113
1.6242
1.4437
1.4824
1.4695
1.4566
1.5469
1.5984
1.6242
1.5598
1.5469
1.65
1.7016
1.6371
1.4437
1.3535
1.3793
1.4695
1.5727
1.7918
1.7145
1.6371
1.3922
1.1215
1.1473
1.1602
1.2504
1.1086
1.0441
1.1473
1.2375
1.2891
1.7918
2.0496
1.8691
1.6371
1.5082
1.5082
1.5082
1.5984
1.6758
1.7016
1.534
1.5598
1.65
1.5984
1.6758
1.7016
1.65
1.5984
1.7531
1.8305
1.882
1.8949
1.8563
1.6758
1.7402
1.7531
1.5727
1.5984
1.6758
1.7145
1.7531
1.5855
1.4695
1.4953
1.7273
1.7273
1.766
1.8047
1.5082
1.534
1.5727
1.4566
1.3922
1.4051
1.3535
1.4437
1.6371
1.7145
1.7402
1.7016
1.5211
1.6113
1.7918
1.7789
1.6242
1.3406
1.1344
1.2246
1.4824
1.7789
1.8176
1.882
1.9207
1.6758
1.5984
1.5598
1.4566
1.2246
1.2117
1.1988
1.0957
1.2762
1.6758
1.534
1.2246
1.1473
0.7348
0.6832
1.1344
1.6242
1.8434
2.0238
1.7531
1.6113
1.7531
2.1527
2.1398
1.9078
1.5855
1.5469
1.3793
1.2762
1.418
1.8047
1.9207
1.766
1.7016
1.7402
1.8047
1.8305
1.7918
1.7402
1.534
1.418
1.4309
1.4051
1.5082
1.6242
1.4953
1.5727
1.766
1.766
1.7402
1.7531
1.7273
1.7016
1.8176
1.8434
1.5469
1.6758
1.7531
1.6113
1.5598
1.2891
1.2375
1.3406
1.4824
1.6113
1.766
1.8563
1.6629
1.6887
1.8305
1.7402
1.3535
1.3277
1.2633
0.9668
1.3277
1.418
1.4437
1.5984
1.7789
1.7402
1.5082
1.3406
1.3793
1.6371
1.6113
1.4309
1.3922
1.4824
1.2762
1.1473
1.4695
1.4824
1.302
1.6371
1.8305
1.8434
1.9336
1.882
1.6758
1.5211
1.4566
1.534
1.6758
1.7918
1.7789
1.4437
1.0313
0.7605
0.9023
1.0441
1.4824
1.9465
2.1527
1.9336
1.8434
1.9078
1.9594
1.8949
1.8434
1.6629
1.5598
1.6629
1.6887
1.6758
1.6629
1.7273
1.8176
1.7789
1.7016
1.5598
1.6887
1.7273
1.6758
1.6113
1.4566
1.3922
1.4437
1.4437
1.6242
1.6758
1.5211
1.534
1.534
1.6371
1.7531
1.6242
1.7016
1.766
1.8305
1.6887
1.3406
1.1988
1.1473
1.2762
1.4437
1.6113
1.6887
1.6113
1.6887
1.7789
1.8691
1.8047
1.7918
1.6758
1.6629
1.4309
0.8121
0.4512
0.4898
0.2449
0.4898
1.3922
1.5082
1.2246
1.6371
2.1141
2.0367
2.0883
2.0109
1.8949
1.4824
1.5598
1.7273
1.8434
1.7402
1.5727
1.5727
1.5211
1.3922
1.3664
1.5211
1.65
1.7531
1.7145
1.6242
1.65
1.5984
1.65
1.6242
1.5469
1.4824
1.4953
1.5598
1.7145
1.7145
1.6371
1.6242
1.7145
1.8047
1.7145
1.6758
1.6629
1.6242
1.5855
1.6758
1.5598
1.5082
1.5082
1.5984
1.5082
1.4437
1.5727
1.5211
1.5211
1.5598
1.6113
1.5984
1.418
1.4051
1.65
1.7402
1.5598
1.1215
0.7605
0.8121
1.2117
1.5469
1.7273
2.0754
2.127
1.8176
1.5082
1.4824
1.1988
0.9023
0.9668
1.0957
1.2762
1.998
2.1785
1.9852
1.65
1.5082
1.3793
1.4824
1.3793
1.3922
1.6113
1.6758
1.418
1.3148
1.3664
1.4051
1.1988
1.4566
1.8691
1.9078
1.7273
1.5984
1.3793
1.3793
1.6629
1.7918
1.8563
1.766
1.6629
1.7273
1.4953
1.3793
1.4309
1.4695
1.5855
1.882
1.9594
1.7273
1.7273
1.7145
1.6629
1.6758
1.6113
1.5984
1.6113
1.6113
1.4824
1.5211
1.5855
1.5855
1.4953
1.418
1.3535
1.4824
1.7016
1.6371
1.3535
1.3277
1.5082
1.3664
1.5082
1.7402
1.6242
1.4309
1.534
1.5469
1.4824
1.5469
1.7918
1.6371
1.2762
1.2246
1.1988
1.418
1.4695
1.3922
1.2117
1.173
1.2891
1.5727
1.8305
1.6242
1.2891
1.1215
1.173
1.5984
1.6113
1.7918
1.998
1.8691
1.6113
1.5211
1.5984
1.6113
1.534
1.2504
1.2375
1.2375
1.2504
1.1473
1.2246
1.3664
1.3922
1.5984
1.8176
1.8949
1.7273
1.7016
1.6242
1.8047
1.9723
1.998
2.0109
1.8305
1.6242
1.5598
1.5598
1.4824
1.7273
1.8691
1.8691
1.6887
1.5598
1.4566
1.4824
1.534
1.5598
1.5469
1.5082
1.6758
1.7145
1.534
1.5211
1.3793
1.2762
1.3664
1.5984
1.5727
1.3148
1.4051
1.2504
1.2633
1.4695
1.6242
1.6887
1.3922
1.302
1.4437
1.4051
1.3664
1.418
1.5727
1.7789
1.6242
1.4437
1.3922
1.3664
1.4437
1.2246
1.1215
0.9797
0.9539
1.1602
1.65
1.8691
2.0625
1.7918
1.5727
1.2117
1.057
0.7477
0.7605
0.9926
1.1602
1.534
2.2043
2.0625
1.7145
1.534
1.5984
1.8305
2.0367
1.9336
1.8047
1.6758
1.65
1.7016
1.7789
1.7402
1.5855
1.4953
1.302
1.4051
1.418
1.3535
1.7273
1.8949
1.9078
1.7918
1.7531
1.7145
1.7531
1.7918
1.6629
1.6113
1.7145
1.6113
1.6113
1.6758
1.6629
1.5727
1.6758
1.65
1.5598
1.4695
1.4566
1.5727
1.5598
1.534
1.5082
1.4051
1.4953
1.6113
1.6887
1.6113
1.6242
1.6629
1.5598
1.3277
1.2504
1.2762
1.1473
1.1859
1.3664
1.3664
1.6629
1.8047
1.6113
1.4051
1.3535
1.3148
1.2891
1.3535
1.4824
1.5082
1.3922
1.2891
1.1859
0.9668
0.9539
1.1988
1.4566
1.6371
2.359
2.127
1.9465
1.9465
1.8691
1.766
1.4437
1.2375
1.2762
1.4437
1.4437
1.7145
1.6242
1.3535
1.3922
1.5984
1.7402
1.9207
1.766
1.7789
1.8563
1.8176
1.6242
1.5727
1.5727
1.5082
1.5598
1.534
1.4051
1.5984
1.7273
1.7273
1.5211
1.3406
1.3664
1.4437
1.5598
1.65
1.5598
1.3922
1.4051
1.4953
1.4309
1.418
1.534
1.5855
1.7402
1.7918
1.7145
1.7789
1.7918
1.7402
1.65
1.5598
1.5211
1.5855
1.5469
1.4566
1.3922
1.418
1.4695
1.3793
1.3664
1.302
1.3277
1.4695
1.7273
2.0238
1.8949
1.5855
1.5211
1.534
1.4566
1.5855
1.7145
1.6371
1.5855
1.5082
1.2504
1.4051
1.4824
1.4309
1.4566
1.5598
1.5469
1.6242
1.6629
1.7273
1.4566
1.1344
1.2117
1.302
1.534
1.7402
1.5082
1.0699
1.3793
1.5984
1.5469
1.3793
1.2633
1.1086
1.2762
1.7273
1.9078
2.1141
2.0367
1.7789
1.7016
1.7789
1.8434
1.7402
1.7016
1.6113
1.534
1.5211
1.5082
1.4566
1.418
1.5727
1.5598
1.3922
1.5598
1.7016
1.6371
1.65
1.6629
1.7789
1.7273
1.65
1.6629
1.5082
1.4437
1.4953
1.4953
1.4566
1.3922
1.5855
1.5727
1.5469
1.7145
1.6887
1.4824
1.5598
1.5855
1.5598
1.5211
1.4953
1.3793
1.3793
1.3922
1.3664
1.3406
1.5727
1.5469
1.5211
1.3535
1.1859
1.2891
1.5855
1.8434
1.8691
1.5727
1.3148
1.1344
1.1859
1.3664
1.3664
1.6629
2.0754
1.6242
1.4953
1.8176
1.8305
1.7789
1.8047
1.7273
1.6758
1.6758
1.6242
1.5211
1.4309
1.3793
1.418
1.4695
1.4824
1.5727
1.6371
1.5727
1.6629
1.5984
1.534
1.6113
1.5598
1.418
1.4824
1.5598
1.65
1.5855
1.534
1.534
1.5211
1.6113
1.7273
1.6242
1.4953
1.5211
1.5598
1.5984
1.5855
1.5855
1.534
1.4051
1.4437
1.5598
1.6242
1.5727
1.5469
1.4824
1.4953
1.5469
1.5082
1.5082
1.3535
0.9539
0.941
1.3793
1.7273
1.7402
1.8176
1.8176
1.7016
1.4695
1.4051
1.4953
1.5598
1.534
1.6371
1.6887
1.5211
1.4695
1.6371
1.5984
1.4695
1.4437
1.5598
1.5211
1.5855
1.5855
1.4953
1.3793
1.2891
1.2375
1.2633
1.2762
1.4051
1.534
1.4437
1.5082
1.4953
1.3535
1.3406
1.4437
1.65
1.7145
1.6758
1.7273
1.6242
1.534
1.5855
1.5082
1.5211
1.7531
1.7402
1.6887
1.766
1.8305
1.8434
1.6887
1.4953
1.5855
1.5727
1.5469
1.4695
1.4309
1.4437
1.4309
1.4953
1.5855
1.5984
1.6629
1.7145
1.6887
1.534
1.4566
1.4051
1.4437
1.4953
1.5984
1.5984
1.5082
1.5598
1.6758
1.65
1.6113
1.5598
1.4953
1.4953
1.3535
1.3148
1.3664
1.418
1.4437
1.6629
1.8176
1.6113
1.4824
1.4824
1.4695
1.4695
1.5211
1.5855
1.5211
1.3922
1.3922
1.4309
1.4566
1.3277
1.302
1.2117
1.2375
1.4695
1.8563
2.1785
2.0109
1.7531
1.7016
1.5984
1.5211
1.5727
1.6758
1.6242
1.3922
1.302
1.2762
1.2891
1.4566
1.5855
1.4953
1.5211
1.4437
1.3406
1.4051
1.4695
1.6242
1.6887
1.7789
1.6887
1.5984
1.5598
1.4695
1.4824
1.534
1.5727
1.5598
1.5598
1.4566
1.2762
1.1473
1.1473
1.3535
1.6371
1.6758
1.8563
1.8176
1.6758
1.5598
1.6113
1.6758
1.8176
1.9207
1.8176
1.6887
1.5469
1.3793
1.2504
1.3277
1.4566
1.6758
1.5211
1.2891
1.0441
1.1859
1.2762
1.534
1.7531
1.6758
1.6113
1.5469
1.5211
1.6371
1.7145
1.6887
1.7273
1.6629
1.6113
1.6629
1.5984
1.2504
1.0699
1.1859
1.3148
1.418
1.6113
1.7789
1.6242
1.5082
1.4695
1.6242
1.65
1.6371
1.4695
1.3922
1.3148
1.2762
1.2375
1.302
1.3148
1.5598
1.65
1.7016
1.9336
1.8176
1.6242
1.5855
1.6242
1.7016
1.6887
1.7273
1.6113
1.4051
1.3148
1.302
1.2504
1.418
1.7918
1.8949
1.6758
1.534
1.5082
1.5727
1.5727
1.5598
1.7273
1.7402
1.5727
1.5211
1.5855
1.4824
1.3922
1.5082
1.5469
1.4695
1.4437
1.3922
1.4051
1.4051
1.4566
1.5727
1.5727
1.4824
1.1602
1.2891
1.4437
1.4566
1.4566
1.5469
1.1988
1.057
1.3793
1.7402
1.7789
1.7789
1.65
1.5469
1.5727
1.766
1.7016
1.5855
1.5082
1.4309
1.5855
1.6887
1.534
1.4566
1.4953
1.5082
1.4695
1.534
1.5727
1.4309
1.3793
1.3793
1.4051
1.4051
1.3277
1.2762
1.4953
1.5598
1.6242
1.6629
1.6113
1.5469
1.4824
1.5984
1.6758
1.65
1.534
1.5598
1.534
1.5727
1.5727
1.5082
1.534
1.4953
1.5855
1.6887
1.5082
1.5598
1.7789
1.6242
1.5469
1.4953
1.5469
1.5469
1.5211
1.5598
1.534
1.4566
1.534
1.5727
1.4437
1.4953
1.5727
1.534
1.4437
1.418
1.3535
1.3148
1.4437
1.5598
1.4953
1.3922
1.5211
1.4695
1.4566
1.3664
1.3148
1.3277
1.2762
1.4437
1.6371
1.65
1.2633
1.057
1.0055
0.941
1.2117
1.8691
2.3074
2.0109
1.7918
1.5855
1.5211
1.4824
1.4695
1.4437
1.5211
1.5082
1.418
1.4953
1.6629
1.5855
1.4824
1.5598
1.5469
1.5727
1.5598
1.534
1.5211
1.4824
1.534
1.5598
1.5855
1.5598
1.4824
1.6113
1.6758
1.6113
1.4566
1.5082
1.5082
1.5082
1.4695
1.302
1.1988
1.2504
1.2762
1.4953
1.8949
2.0238
1.8949
1.7918
1.6758
1.5984
1.5984
1.5984
1.5727
1.4824
1.4437
1.1473
1.0957
1.3148
1.5469
1.4953
1.5727
1.6371
1.4437
1.4695
1.4695
1.6242
1.7531
1.4824
1.3406
1.2762
1.2762
1.3664
1.4309
1.3793
1.5598
1.882
1.7531
1.5469
1.4437
1.4309
1.302
1.2633
1.3922
1.5855
1.4824
1.5211
1.5211
1.4566
1.3664
1.3922
1.4309
1.5855
1.5211
1.4824
1.5598
1.6242
1.6887
1.7531
1.6371
1.4695
1.4437
1.4566
1.5082
1.3793
1.2117
1.1086
1.0441
1.2246
1.4695
1.7402
1.8047
1.534
1.4695
1.4437
1.5984
1.7789
1.8691
1.882
1.766
1.6242
1.5211
1.4953
1.4824
1.5727
1.4824
1.4051
1.3535
1.3793
1.6758
1.6887
1.6242
1.6758
1.7789
1.6629
1.5855
1.6113
1.5082
1.4566
1.418
1.6371
1.6371
1.5984
1.4695
1.302
1.2762
1.3148
1.3277
1.5727
1.6629
1.65
1.6113
1.5855
1.6242
1.6629
1.7016
1.5855
1.5598
1.4309
1.3148
1.2891
1.2891
1.3148
1.4309
1.5082
1.4309
1.2762
1.2633
1.3277
1.2891
1.2504
1.2246
1.1602
1.3148
1.6758
1.7016
1.534
1.302
1.302
1.5211
1.5727
1.7273
1.7531
1.6113
1.4566
1.5211
1.5211
1.3148
1.2246
1.3793
1.4953
1.5855
1.8176
1.8691
1.7789
1.6629
1.5082
1.3922
1.3406
1.3277
1.5082
1.6242
1.5082
1.6371
1.7145
1.65
1.7016
1.6887
1.5082
1.4051
1.4953
1.5469
1.5211
1.5727
1.6113
1.6113
1.5855
1.5855
1.6371
1.5984
1.4309
1.3535
1.4695
1.5598
1.5211
1.3535
1.3922
1.4695
1.5082
1.5727
1.4437
1.3406
1.4566
1.5598
1.6371
1.5855
1.5469
1.5984
1.5598
1.4953
1.3922
1.3148
1.3148
1.3277
1.5082
1.8949
1.7918
1.6113
1.4695
1.3664
1.3406
1.1473
1.0828
1.0828
1.1859
1.3793
1.6629
1.5727
1.2891
1.2375
1.3148
1.534
1.7273
1.7145
1.6887
1.65
1.5855
1.5984
1.6113
1.5598
1.5855
1.5727
1.418
1.5211
1.5211
1.5598
1.6371
1.65
1.5598
1.5211
1.4824
1.4695
1.173
1.0828
1.1344
1.1473
1.4695
1.8563
1.882
1.7402
1.7016
1.7145
1.5598
1.4953
1.4695
1.4695
1.5855
1.6242
1.534
1.418
1.4437
1.534
1.5984
1.534
1.4824
1.5082
1.418
1.4824
1.5855
1.6629
1.65
1.7016
1.6371
1.5984
1.5211
1.5469
1.5469
1.534
1.4566
1.3922
1.418
1.3922
1.3793
1.418
1.4824
1.2762
1.057
0.9926
1.2117
1.3535
1.4566
1.4309
1.4953
1.5855
1.766
1.6242
1.766
1.9207
1.7531
1.7145
1.5984
1.5082
1.5598
1.5727
1.5082
1.4309
1.3406
1.2891
1.1988
1.1988
1.1859
1.2504
1.2891
1.302
1.2246
1.3922
1.4953
1.7273
1.6887
1.7531
1.8563
1.7402
1.6758
1.6629
1.5855
1.5984
1.5211
1.2504
1.0828
1.2375
1.3535
1.5211
1.6242
1.5727
1.4953
1.418
1.5082
1.5598
1.6113
1.6242
1.7789
1.8563
1.8691
1.7918
1.6887
1.6113
1.7016
1.65
1.4953
1.4437
1.534
1.4695
1.4309
1.4695
1.534
1.5211
1.534
1.4437
1.3406
1.3406
1.4824
1.5211
1.4953
1.418
1.4437
1.5082
1.4695
1.4566
1.4695
1.5082
1.4953
1.5598
1.5469
1.5469
1.5598
1.5211
1.4437
1.5082
1.5082
1.5211
1.5984
1.534
1.302
1.2117
1.2246
1.2117
1.2762
1.4695
1.4824
1.5082
1.6371
1.4953
1.3277
1.4566
1.534
1.4824
1.5727
1.5082
1.6629
1.7145
1.6887
1.4309
1.2117
1.1988
1.3922
1.65
1.766
1.8176
1.7145
1.5469
1.4566
1.5855
1.7273
1.6242
1.4824
1.4051
1.3406
1.3148
1.302
1.5211
1.7402
1.5984
1.534
1.5598
1.6242
1.5855
1.5984
1.5469
1.5727
1.5211
1.5598
1.5855
1.6242
1.6242
1.4695
1.3793
1.3664
1.3793
1.4695
1.5855
1.7016
1.6113
1.4953
1.4695
1.534
1.6758
1.6758
1.6629
1.5469
1.4824
1.5469
1.5211
1.4309
1.3793
1.4051
1.3793
1.302
1.418
1.534
1.65
1.4824
1.2375
1.1859
1.3277
1.3406
1.5082
1.6242
1.534
1.6629
1.6887
1.5598
1.5727
1.5598
1.4824
1.65
1.6371
1.4953
1.4051
1.4309
1.4566
1.4309
1.3793
1.3664
1.3535
1.2762
1.2633
1.2504
1.3664
1.5469
1.7402
1.8047
1.6629
1.6758
1.7016
1.6371
1.6113
1.5855
1.534
1.5082
1.4309
1.4953
1.6887
1.8176
1.7145
1.6113
1.6113
1.5598
1.5855
1.6629
1.5984
1.5082
1.4437
1.4051
1.4695
1.5082
1.4824
1.5211
1.534
1.4824
1.4051
1.302
1.2246
1.1988
1.2117
1.4824
1.534
1.7016
1.7918
1.6371
1.4566
1.3406
1.2633
1.2504
1.3664
1.4824
1.5598
1.6242
1.6242
1.6758
1.6371
1.418
1.4566
1.4566
1.3406
1.3922
1.5469
1.5082
1.4051
1.5082
1.5598
1.4437
1.3277
1.1859
1.3148
1.3793
1.2891
1.3922
1.5727
1.4695
1.3793
1.4437
1.4309
1.3148
1.2246
1.3148
1.4695
1.4566
1.6371
1.6758
1.4953
1.4953
1.4953
1.4437
1.4566
1.4051
1.4309
1.4695
1.534
1.6887
1.7016
1.5984
1.4051
1.418
1.4051
1.3793
1.3793
1.5211
1.5855
1.6758
1.7145
1.5469
1.4953
1.5598
1.6242
1.65
1.5082
1.3664
1.2891
1.4437
1.534
1.4437
1.5855
1.5469
1.4695
1.5469
1.5211
1.4695
1.4566
1.4953
1.6242
1.6113
1.534
1.5082
1.418
1.3793
1.3277
1.3277
1.3793
1.418
1.3277
1.173
1.0441
1.1602
1.2375
1.418
1.7273
1.8434
1.7016
1.534
1.5727
1.6242
1.5855
1.5598
1.5469
1.6371
1.534
1.4566
1.4437
1.5855
1.418
1.3277
1.2504
1.302
1.6629
1.8047
1.6758
1.5211
1.3664
1.302
1.3922
1.5598
1.4695
1.2504
1.3535
1.65
1.6242
1.4437
1.5211
1.5082
1.5082
1.5855
1.5598
1.5855
1.6242
1.6242
1.6113
1.6113
1.5984
1.5984
1.5469
1.4309
1.3922
1.3793
1.2891
1.1988
1.3535
1.418
1.3793
1.3922
1.3535
1.3664
1.4695
1.5727
1.5855
1.534
1.4437
1.4953
1.5211
1.5855
1.5855
1.5211
1.2375
1.0828
1.1602
1.3535
1.5598
1.7145
1.6887
1.5984
1.5855
1.5469
1.534
1.5082
1.2891
1.1086
1.057
1.2117
1.4051
1.6629
1.6758
1.6371
1.7145
1.6758
1.5855
1.5855
1.534
1.5727
1.6113
1.5855
1.5598
1.5598
1.5727
1.534
1.5469
1.5727
1.6242
1.6887
1.6371
1.4437
1.4437
1.4309
1.057
1.173
1.4309
1.5211
1.6113
1.5855
1.5469
1.534
1.5855
1.5727
1.5469
1.4695
1.4695
1.4566
1.4051
1.4051
1.4824
1.534
1.534
1.6113
1.6113
1.5082
1.4437
1.5082
1.5598
1.6113
1.4824
1.2762
1.2891
1.3922
1.1859
1.0699
1.0313
0.9797
1.1344
1.6113
1.9465
1.65
1.4824
1.4309
1.302
1.2246
1.3277
1.6113
1.7918
1.6887
1.6113
1.5984
1.5855
1.5469
1.4695
1.3922
1.2375
1.2246
1.4695
1.6242
1.7145
1.6371
1.5211
1.4051
1.418
1.5082
1.6113
1.6629
1.5082
1.3922
1.3277
1.2504
1.2504
1.1602
1.2633
1.4051
1.4953
1.5855
1.7016
1.65
1.5984
1.6758
1.7145
1.7145
1.7145
1.6887
1.6887
1.7531
1.6887
1.5598
1.5469
1.5727
1.5984
1.6242
1.6113
1.5082
1.5082
1.6113
1.4695
1.418
1.5727
1.534
1.5211
1.5598
1.5082
1.4309
1.3793
1.4824
1.4953
1.4437
1.4695
1.534
1.534
1.4953
1.418
1.3535
1.5082
1.5211
1.418
1.3922
1.4953
1.5469
1.5598
1.5727
1.5984
1.5469
1.3277
1.1473
1.2246
1.302
1.3922
1.534
1.6113
1.4695
1.4695
1.5855
1.5598
1.5469
1.534
1.3535
1.2375
1.2246
1.173
1.302
1.5211
1.6887
1.65
1.534
1.4309
1.3793
1.2891
1.2891
1.302
1.2891
1.3664
1.534
1.5984
1.6629
1.6371
1.5469
1.5211
1.5727
1.5855
1.5211
1.4566
1.4566
1.5727
1.5984
1.5598
1.5469
1.4953
1.3406
1.2762
1.3793
1.5727
1.5855
1.5598
1.5984
1.5598
1.4309
1.2633
1.4051
1.4437
1.4051
1.4953
1.4566
1.5211
1.5984
1.5984
1.6629
1.7016
1.6887
1.6887
1.5855
1.5598
1.5984
1.4309
1.2117
1.2504
1.1988
1.2504
1.4437
1.5598
1.4566
1.4051
1.3664
1.2891
1.302
1.3277
1.3406
1.2891
1.4953
1.6629
1.6242
1.5469
1.5211
1.5082
1.5082
1.3922
1.2375
1.1602
1.2375
1.418
1.6113
1.7402
1.8176
1.8047
1.6242
1.3793
1.4566
1.4309
1.3664
1.3277
1.3148
1.3922
1.4953
1.3664
1.3535
1.5211
1.4437
1.4824
1.4309
1.3793
1.3664
1.5082
1.65
1.5855
1.6113
1.6113
1.4824
1.3922
1.2762
1.4309
1.5469
1.4695
1.6242
1.5727
1.5727
1.6371
1.5855
1.3664
1.3664
1.2117
1.3277
1.5211
1.4824
1.4824
1.7016
1.9465
1.8176
1.6758
1.4566
1.2633
1.1988
1.2633
1.2504
1.3406
1.5469
1.5082
1.5469
1.6242
1.5211
1.6113
1.418
1.2762
1.3922
1.5598
1.5727
1.5598
1.3793
1.2633
1.4695
1.5984
1.4824
1.4824
1.534
1.5598
1.5855
1.5082
1.4566
1.534
1.5727
1.534
1.5598
1.5598
1.4953
1.4566
1.4437
1.4566
1.4309
1.4437
1.5598
1.4437
1.302
1.2246
1.1602
1.1602
1.2246
1.3406
1.2762
1.302
1.418
1.4824
1.4695
1.3664
1.2762
1.4309
1.6887
1.6758
1.7145
1.8047
1.5984
1.4051
1.4309
1.4566
1.4824
1.4695
1.3148
1.1988
1.2375
1.3793
1.4953
1.534
1.5211
1.6242
1.7016
1.6242
1.534
1.4824
1.5469
1.5598
1.6113
1.7145
1.7145
1.7016
1.6242
1.5211
1.4824
1.5727
1.4309
1.5211
1.5984
1.5855
1.6242
1.5984
1.6371
1.6113
1.5082
1.3793
1.2762
1.1602
1.1473
1.2117
1.3148
1.3277
1.4051
1.4695
1.418
1.4437
1.4953
1.65
1.6758
1.65
1.7145
1.65
1.4051
1.4437
1.534
1.7016
1.7273
1.6629
1.302
1.1086
1.1859
1.2117
1.0184
1.0957
1.2375
1.3664
1.3793
1.5082
1.6758
1.6758
1.5598
1.6242
1.7145
1.8563
1.8176
1.8305
1.5211
0.9281
0.825
0.8895
1.1473
1.2504
1.3922
1.534
1.5211
1.3406
1.302
1.3277
1.3664
1.4437
1.5211
1.4309
1.4051
1.4824
1.5855
1.6242
1.5082
1.3793
1.302
1.4309
1.5598
1.6113
1.4953
1.4051
1.3535
1.3793
1.3922
1.3793
1.4824
1.5211
1.534
1.5469
1.5727
1.4953
1.5082
1.4953
1.3793
1.3277
1.4309
1.5211
1.5855
1.4953
1.4309
1.4953
1.5984
1.534
1.5082
1.5082
1.5469
1.5469
1.4695
1.4566
1.5082
1.4566
1.5082
1.5984
1.5598
1.5082
1.4566
1.3664
1.5727
1.6758
1.418
1.3535
1.5469
1.5984
1.6242
1.6242
1.4437
1.3664
1.3148
1.3148
1.3148
1.3277
1.3277
1.302
1.3277
1.3277
1.4566
1.5469
1.3922
1.173
1.0957
1.3535
1.5211
1.7531
1.766
1.5727
1.4824
1.3793
1.3922
1.3277
1.3793
1.5855
1.7402
1.6242
1.418
1.2762
1.2117
1.302
1.3406
1.3922
1.302
1.2762
1.3148
1.4309
1.5598
1.6242
1.5855
1.418
1.4309
1.418
1.3793
1.4953
1.5598
1.5855
1.6242
1.5469
1.4566
1.5211
1.5082
1.5211
1.5082
1.5984
1.6629
1.65
1.6629
1.7273
1.7789
1.6887
1.4824
1.5211
1.5211
1.4566
1.418
1.4437
1.4695
1.5082
1.5211
1.5082
1.418
1.3793
1.3922
1.4437
1.5211
1.418
1.5598
1.5211
1.534
1.5984
1.5211
1.4824
1.4566
1.3922
1.2633
1.3664
1.3664
1.302
1.2375
1.1473
1.057
0.9539
0.9023
1.0313
1.2633
1.6242
1.9465
1.8949
1.6629
1.3793
1.2891
1.4051
1.4695
1.4437
1.4953
1.6371
1.3406
1.3406
1.2504
1.3406
1.3535
1.4437
1.5211
1.65
1.7145
1.766
1.6887
1.5211
1.4695
1.3535
1.2762
1.2762
1.302
1.2762
1.3664
1.5082
1.5855
1.4566
1.3535
1.3664
1.3148
1.3535
1.3922
1.4566
1.4566
1.534
1.6113
1.6113
1.5855
1.6371
1.6113
1.5598
1.4695
1.4309
1.4953
1.534
1.4953
1.4953
1.5469
1.5598
1.4566
1.4824
1.6113
1.4953
1.2633
1.2762
1.3922
1.534
1.6242
1.7402
1.9336
1.8949
1.7145
1.5211
1.3148
1.2891
1.4824
1.7016
1.5598
1.0828
0.7477
0.6703
0.709
0.7477
1.1602
1.4695
1.6113
1.6113
1.7145
1.7016
1.5469
1.4566
1.4695
1.4824
1.5727
1.5727
1.6113
1.6887
1.5598
1.3406
1.1473
0.9926
1.0441
1.3148
1.4824
1.4309
1.4309
1.4051
1.418
1.4437
1.418
1.3793
1.2762
1.3277
1.4566
1.7145
1.7273
1.6758
1.5727
1.6371
1.7402
1.5082
1.3406
1.2246
1.2246
1.2375
1.3664
1.4051
1.4309
1.418
1.3664
1.4695
1.4051
1.302
1.2246
1.3148
1.418
1.4566
1.534
1.7402
1.8434
1.7016
1.65
1.7016
1.5082
1.3664
1.2246
1.173
1.1215
1.1859
1.3277
1.3406
1.2633
1.2504
1.3535
1.4051
1.5082
1.5984
1.5211
1.4566
1.5211
1.534
1.6371
1.5598
1.1988
1.057
0.9926
1.0699
1.1344
1.5082
2.0754
2.1398
2.0883
2.0625
1.9594
1.7918
1.4309
1.0828
1.0441
1.0828
1.0699
1.1988
1.3277
1.2117
1.0699
1.1602
1.2633
1.4051
1.7918
1.9594
1.6758
1.4566
1.3277
1.173
1.0957
1.3535
1.534
1.534
1.3406
1.2633
1.3277
1.418
1.4695
1.65
1.7145
1.8047
1.7789
1.6113
1.4695
1.4953
1.5469
1.5469
1.65
1.6242
1.6629
1.5469
1.3922
1.3535
1.4051
1.3535
1.3664
1.4695
1.3793
1.3277
1.418
1.5727
1.5598
1.6113
1.7273
1.6371
1.2633
1.1988
1.2504
1.302
1.4566
1.4824
1.3664
1.3148
1.2246
1.2504
1.1859
1.3922
1.3664
1.302
1.534
1.5211
1.4566
1.3793
1.2504
1.1988
1.2762
1.3664
1.6113
1.766
1.9336
1.9723
1.882
1.6758
1.4566
1.2891
1.1344
1.1344
1.0055
1.0441
1.3664
1.8691
1.882
1.7145
1.6629
1.6113
1.534
1.5598
1.534
1.4051
1.3664
1.4566
1.5211
1.4824
1.534
1.6887
1.7145
1.65
1.3664
1.2375
1.4953
1.5469
1.5211
1.5727
1.5082
1.4566
1.5082
1.534
1.4437
1.4953
1.5082
1.4309
1.3922
1.5984
1.7918
1.8563
1.6371
1.302
1.2633
1.3535
1.302
1.3535
1.4437
1.5211
1.5727
1.4824
1.2762
1.1859
1.2633
1.3664
1.418
1.4566
1.5082
1.5082
1.5727
1.6113
1.5984
1.5727
1.5082
1.534
1.4566
1.4309
1.3277
1.3922
1.4953
1.5469
1.6629
1.7789
1.6113
1.5469
1.5469
1.3922
1.2117
1.2762
1.5082
1.3406
1.1344
0.9926
0.941
1.0828
1.3922
1.6371
1.6758
1.7789
1.5984
1.5082
1.4695
1.4437
1.4953
1.6371
1.6242
1.7145
1.7402
1.6371
1.6113
1.5211
1.4953
1.6113
1.5598
1.5727
1.65
1.5727
1.4566
1.3148
1.302
1.3406
1.4051
1.4051
1.4566
1.534
1.5082
1.5598
1.6113
1.6758
1.7016
1.6629
1.6113
1.5469
1.5984
1.6242
1.5469
1.4437
1.4051
1.418
1.4309
1.3664
1.3148
1.3922
1.4695
1.5082
1.5469
1.5727
1.5984
1.5727
1.5855
1.5855
1.5727
1.4953
1.4824
1.4824
1.4437
1.418
1.4309
1.3922
1.3277
1.3535
1.4695
1.418
1.3277
1.4437
1.4824
1.4051
1.5082
1.6887
1.766
1.5855
1.5727
1.5727
1.4953
1.5082
1.5598
1.5211
1.4566
1.4309
1.2891
1.1473
1.057
1.0699
1.302
1.5727
1.5598
1.6242
1.882
1.7273
1.3922
1.2246
1.1988
1.0184
1.1215
1.3922
1.5727
1.5598
1.6629
1.7918
1.6371
1.4953
1.4566
1.534
1.8434
1.8176
1.7918
1.9336
1.8434
1.5984
1.3406
1.1215
1.0828
1.2246
1.2375
1.2246
1.3664
1.5598
1.6629
1.7016
1.6887
1.65
1.6629
1.6629
1.5855
1.5855
1.4953
1.4953
1.534
1.4051
1.3406
1.5211
1.5082
1.5082
1.3922
1.4437
1.6371
1.65
1.5082
1.4437
1.4051
1.3406
1.4437
1.534
1.4695
1.4695
1.534
1.5984
1.6242
1.6113
1.5598
1.5211
1.5469
1.6113
1.5727
1.5984
1.5469
1.3535
1.1988
1.2762
1.4437
1.4824
1.4824
1.4566
1.4051
1.3922
1.4824
1.4695
1.4309
1.4437
1.4824
1.5984
1.6758
1.6242
1.6887
1.6887
1.4953
1.2504
1.1344
1.1859
1.2891
1.418
1.5469
1.4566
1.2891
1.2633
1.4051
1.6629
1.8434
1.7531
1.5469
1.5469
1.7145
1.7402
1.7402
1.7016
1.5598
1.418
1.3148
1.3148
1.4051
1.3793
1.4953
1.4824
1.418
1.4051
1.5727
1.7918
1.8305
1.8176
1.766
1.6371
1.5211
1.4953
1.5727
1.5855
1.5211
1.3793
1.3793
1.5211
1.4953
1.4309
1.4051
1.3793
1.4695
1.4824
1.4051
1.4309
1.4953
1.4309
1.5211
1.5984
1.5855
1.5727
1.5727
1.5727
1.534
1.4437
1.3922
1.4566
1.5727
1.5855
1.4953
1.418
1.2762
1.1602
1.1473
1.2117
1.4051
1.5855
1.7789
1.766
1.5469
1.3922
1.3277
1.2504
1.2246
1.3793
1.5082
1.6371
1.6758
1.6758
1.7531
1.6242
1.5082
1.4566
1.4824
1.3922
1.3535
1.5727
1.6758
1.6887
1.6371
1.6887
1.6113
1.5855
1.534
1.4309
1.3148
1.3793
1.5727
1.5211
1.4953
1.5211
1.5727
1.5984
1.5727
1.5211
1.5082
1.5469
1.6371
1.6242
1.6113
1.65
1.7016
1.5211
1.418
1.4051
1.2891
1.1988
1.2891
1.4824
1.6887
1.7918
1.7016
1.6758
1.6629
1.5727
1.4953
1.4437
1.534
1.5727
1.4953
1.4051
1.3664
1.3406
1.3922
1.3406
1.3406
1.418
1.534
1.534
1.4695
1.2891
1.0441
1.0184
1.2246
1.534
1.534
1.2633
1.2246
1.4051
1.5082
1.5598
1.8047
1.7918
1.5598
1.3922
1.4824
1.534
1.5855
1.65
1.6371
1.4953
1.4566
1.5211
1.6113
1.5855
1.65
1.7402
1.6629
1.5727
1.4953
1.5469
1.5598
1.5984
1.6242
1.5598
1.5211
1.4695
1.5984
1.65
1.5727
1.5727
1.5211
1.4051
1.418
1.6629
1.8305
1.8434
1.8047
1.65
1.534
1.4824
1.4953
1.4824
1.5211
1.4824
1.4824
1.5855
1.6371
1.5855
1.4824
1.4051
1.3793
1.4051
1.4437
1.4437
1.4566
1.3277
1.2633
1.2375
1.302
1.2891
1.3793
1.5855
1.6113
1.6113
1.5855
1.6758
1.7789
1.766
1.7918
1.65
1.4566
1.3664
1.4051
1.3664
1.3535
1.4824
1.65
1.6629
1.5211
1.4953
1.3535
1.302
1.2891
1.2504
1.302
1.2633
1.3535
1.4051
1.5598
1.6629
1.5598
1.7145
1.7531
1.6371
1.4953
1.3664
1.3277
1.3664
1.4437
1.4824
1.6758
1.8434
1.6887
1.5082
1.4824
1.5984
1.6242
1.5855
1.4437
1.4051
1.5211
1.65
1.7016
1.4953
1.3793
1.3406
1.4309
1.5727
1.6758
1.7016
1.6242
1.5855
1.4566
1.3664
1.302
1.302
1.4309
1.7273
1.9594
1.8176
1.7016
1.6887
1.5855
1.4309
1.4824
1.5984
1.6242
1.5598
1.4824
1.4437
1.5082
1.5211
1.5082
1.4824
1.5211
1.5082
1.4309
1.3406
1.2504
1.4695
1.7402
1.7531
1.5727
1.4824
1.5598
1.5984
1.6113
1.5727
1.4695
1.534
1.6113
1.5984
1.5082
1.302
1.2375
1.302
1.2633
1.3148
1.5469
1.7789
1.7402
1.7273
1.7789
1.8176
1.8305
1.7273
1.4824
1.1215
1.1859
1.302
1.3922
1.4824
1.5082
1.2762
1.173
1.2633
1.3148
1.3148
1.4309
1.4695
1.3277
1.2891
1.3406
1.4437
1.6887
1.882
1.8434
1.4953
1.2246
1.3148
1.2375
1.0313
1.3406
1.5727
1.6371
1.5727
1.766
1.7789
1.7402
1.7402
1.7402
1.6887
1.6113
1.5984
1.65
1.6629
1.6758
1.6758
1.65
1.6629
1.65
1.6242
1.534
1.4824
1.4824
1.4437
1.4824
1.5727
1.6242
1.65
1.6242
1.5727
1.5211
1.5211
1.4953
1.418
1.4437
1.4309
1.4566
1.534
1.6113
1.6887
1.6629
1.5984
1.5211
1.5082
1.4953
1.5469
1.5469
1.5469
1.5598
1.5469
1.5598
1.5598
1.6629
1.6887
1.5598
1.418
1.3277
1.4309
1.4566
1.4309
1.5082
1.5727
1.6242
1.5727
1.5855
1.6113
1.534
1.5855
1.5984
1.3922
1.0441
0.941
0.941
0.9539
1.2633
1.7531
2.1141
2.0625
1.65
1.4566
1.3535
1.3535
1.4437
1.534
1.4695
1.3664
1.4566
1.4824
1.4051
1.4309
1.6371
1.7789
1.7016
1.6758
1.4824
1.3535
1.3664
1.302
1.5469
1.7531
1.6629
1.6371
1.6758
1.7016
1.6629
1.5469
1.418
1.4695
1.418
1.2891
1.3406
1.4695
1.6242
1.8047
1.8305
1.6242
1.3793
1.5469
1.6371
1.5469
1.4953
1.5598
1.5727
1.534
1.5211
1.5082
1.6242
1.8176
1.8563
1.7273
1.5984
1.3922
1.3922
1.3922
1.3793
1.2504
1.2117
1.3406
1.4953
1.6629
1.5598
1.5211
1.5469
1.4695
1.3664
1.3793
1.2891
1.4437
1.3793
1.5469
1.8563
1.766
1.4824
1.4566
1.3793
1.3148
1.2246
1.302
1.3793
1.4437
1.6629
1.9594
1.9336
1.8305
1.766
1.5469
1.4824
1.4437
1.2246
1.1086
1.2375
1.418
1.4953
1.7531
2.0883
1.766
1.5469
1.3922
1.1859
1.3277
1.6113
1.5211
1.4695
1.5211
1.5855
1.5598
1.5598
1.5598
1.5211
1.4824
1.5211
1.4824
1.3664
1.1859
1.1344
1.2504
1.4824
1.8434
1.9594
1.7531
1.6629
1.7016
1.6371
1.4953
1.418
1.4824
1.5727
1.4566
1.4051
1.3664
1.3148
1.3535
1.534
1.6629
1.6758
1.6113
1.4695
1.3664
1.1602
1.0699
1.1473
1.1988
1.3922
1.3793
1.4566
1.5855
1.6242
1.6887
1.7273
1.6242
1.7402
1.65
1.6371
1.7273
1.766
1.5855
1.5855
1.7273
1.7531
1.65
1.5984
1.418
1.4566
1.4051
1.2504
1.5727
1.7273
1.4953
1.3535
1.3535
1.1215
1.1473
1.4695
1.6887
1.882
1.8047
1.6242
1.5727
1.5984
1.5469
1.534
1.4566
1.5727
1.4695
1.4695
1.5082
1.4824
1.4953
1.534
1.5598
1.4566
1.5598
1.6887
1.5598
1.4695
1.6371
1.7531
1.5598
1.4051
1.3148
1.4309
1.4051
1.2375
1.2891
1.6629
1.7016
1.5855
1.6371
1.6242
1.7402
1.6887
1.6242
1.5082
1.4437
1.5727
1.5598
1.6242
1.7273
1.8047
1.65
1.418
1.2762
1.1859
1.2246
1.302
1.3664
1.4051
1.5598
1.4953
1.4566
1.418
1.4309
1.534
1.5598
1.5082
1.5211
1.5727
1.3664
1.2633
1.3148
1.3922
1.5984
1.8563
1.8176
1.7402
1.5469
1.3922
1.3406
1.4309
1.3535
1.3922
1.4953
1.2246
1.1859
1.3406
1.3277
1.4309
1.5984
1.6758
1.6758
1.7145
1.7402
1.7531
1.8047
1.6887
1.7016
1.766
1.6758
1.6113
1.5984
1.6113
1.5469
1.4309
1.5211
1.4051
1.4566
1.534
1.7145
1.6758
1.5469
1.534
1.5598
1.4566
1.4566
1.6113
1.7145
1.7016
1.534
1.4695
1.4566
1.5211
1.534
1.4953
1.5727
1.534
1.3535
1.1988
1.2117
1.4824
1.5211
1.5727
1.7016
1.6629
1.3406
1.4566
1.5469
1.5211
1.5984
1.6371
1.5727
1.5211
1.5211
1.5727
1.5855
1.6113
1.5855
1.4566
1.3922
1.3664
1.418
1.5082
1.5984
1.7145
1.766
1.5855
1.5855
1.4309
1.2117
1.0699
0.8637
0.8508
0.9926
1.1344
1.4695
2.0496
1.998
1.766
1.5855
1.4566
1.4051
1.534
1.7273
1.7273
1.7531
1.7402
1.7273
1.7016
1.5469
1.5211
1.6113
1.65
1.7016
1.6629
1.6242
1.4437
1.3793
1.534
1.65
1.766
1.7402
1.766
1.7145
1.7016
1.5727
1.4695
1.534
1.5211
1.5855
1.6371
1.534
1.4824
1.4566
1.4309
1.3535
1.3922
1.4824
1.5211
1.5211
1.4437
1.534
1.6758
1.6887
1.5984
1.5211
1.5469
1.6113
1.6242
1.5211
1.534
1.5727
1.4953
1.4437
1.4437
1.3406
1.302
1.3664
1.5082
1.6371
1.6371
1.6887
1.5469
1.3664
1.3277
1.4695
1.7273
1.7402
1.6629
1.5082
1.3277
1.3535
1.3406
1.2504
1.1344
1.302
1.3922
1.302
1.2375
1.5082
1.6887
1.7016
1.7402
1.882
1.8691
1.5855
1.534
1.5598
1.6371
1.7402
1.7016
1.7402
1.6758
1.5469
1.3664
1.2762
1.2633
1.3148
1.4953
1.7016
1.766
1.6371
1.6113
1.6629
1.7531
1.766
1.5984
1.6629
1.766
1.8691
1.7918
1.5469
1.5211
1.418
1.4566
1.4051
1.4566
1.4437
1.4953
1.4824
1.4695
1.5082
1.4695
1.5082
1.6242
1.7402
1.5984
1.4695
1.5082
1.5727
1.5598
1.4824
1.4695
1.4824
1.5469
1.5727
1.5727
1.5855
1.6629
1.7273
1.5855
1.4824
1.5211
1.4051
1.3922
1.4437
1.6629
1.7145
1.6629
1.6113
1.4953
1.3406
1.2246
1.2891
1.3535
1.4953
1.65
1.6629
1.534
1.4309
1.3793
1.4695
1.5082
1.418
1.4051
1.2117
1.0313
1.1473
1.3535
1.5598
1.7145
1.8305
1.6629
1.5727
1.4566
1.3922
1.5211
1.7789
1.8047
1.7402
1.7273
1.6887
1.5984
1.6887
1.8176
1.6758
1.5855
1.5598
1.4695
1.5211
1.4824
1.534
1.6242
1.65
1.6371
1.6371
1.6629
1.5211
1.4437
1.5727
1.7016
1.7402
1.65
1.6242
1.5727
1.5984
1.5727
1.6371
1.65
1.5984
1.5082
1.4695
1.5211
1.4824
1.3535
1.3793
1.534
1.5984
1.4824
1.3148
1.4051
1.5855
1.6887
1.7016
1.5469
1.3922
1.4824
1.4437
1.5082
1.5211
1.4953
1.4824
1.4824
1.5082
1.5855
1.5598
1.5598
1.3922
1.2633
1.2633
1.1988
1.173
1.3406
1.4437
1.4953
1.4953
1.4824
1.7918
2.0496
1.8691
1.6242
1.6758
1.5984
1.4566
1.3922
1.5469
1.6887
1.8047
1.7273
1.5855
1.4953
1.5598
1.4695
1.3535
1.2504
1.2375
1.3664
1.6371
1.65
1.766
1.9336
1.7145
1.7402
1.766
1.6758
1.6629
1.7531
1.65
1.6371
1.6758
1.6242
1.5855
1.5727
1.4695
1.418
1.4566
1.5469
1.5082
1.4824
1.4051
1.3793
1.3664
1.302
1.3535
1.3922
1.5211
1.5469
1.6113
1.6629
1.4824
1.4566
1.5855
1.6113
1.6371
1.5727
1.5211
1.5469
1.5082
1.5082
1.4051
1.418
1.4309
1.3922
1.3664
1.3535
1.3148
1.3922
1.4309
1.302
1.2762
1.2375
1.4824
1.3793
1.4309
1.7531
1.8047
1.7402
1.8176
1.9207
1.8434
1.7273
1.6242
1.4309
1.4695
1.5855
1.5469
1.4953
1.4824
1.4566
1.5082
1.7016
1.7402
1.6242
1.6629
1.5727
1.4566
1.3535
1.3664
1.4953
1.7145
1.7273
1.7273
1.7145
1.5855
1.5082
1.3277
1.2762
1.2891
1.302
1.3664
1.4437
1.6113
1.6371
1.6113
1.5855
1.534
1.5211
1.6113
1.7531
1.7016
1.6113
1.6242
1.6758
1.6629
1.4695
1.4051
1.4051
1.3922
1.5211
1.7531
1.6242
1.4824
1.418
1.4566
1.5469
1.5598
1.4953
1.4953
1.4566
1.3664
1.418
1.5469
1.5469
1.534
1.5211
1.5855
1.766
1.7273
1.5984
1.4824
1.3793
1.3406
1.3406
1.3793
1.4824
1.302
1.0957
1.2246
1.3793
1.5855
1.8434
1.9207
1.8305
1.7918
1.8047
1.65
1.5469
1.5727
1.7016
1.6758
1.5727
1.534
1.534
1.5984
1.6113
1.6629
1.6371
1.6242
1.5598
1.3664
1.3148
1.3148
1.2246
1.2117
1.418
1.418
1.4824
1.5211
1.6242
1.6758
1.6113
1.6113
1.6242
1.6887
1.6758
1.4824
1.4051
1.3664
1.3793
1.4051
1.4953
1.6758
1.7918
1.766
1.6887
1.6242
1.5855
1.5727
1.5469
1.5211
1.6113
1.6242
1.4953
1.5211
1.534
1.4695
1.5211
1.5727
1.534
1.4953
1.4695
1.4566
1.534
1.5469
1.6371
1.7016
1.6113
1.5855
1.5598
1.5469
1.5598
1.5469
1.5211
1.3277
1.3406
1.3664
1.3535
1.4824
1.5727
1.6113
1.5211
1.5469
1.6371
1.4824
1.4953
1.5082
1.4695
1.3664
1.302
1.3535
1.534
1.6887
1.7789
1.8563
1.766
1.7145
1.7016
1.6242
1.7016
1.7273
1.7145
1.4566
1.4309
1.5469
1.5469
1.4309
1.3406
1.3793
1.302
1.2246
1.3277
1.5855
1.8434
1.8949
1.7145
1.6887
1.6758
1.5082
1.6113
1.6371
1.5727
1.5855
1.5211
1.534
1.534
1.5727
1.6242
1.534
1.5984
1.5469
1.4953
1.4824
1.5855
1.6371
1.534
1.5211
1.5984
1.5727
1.6371
1.6113
1.6242
1.5082
1.2375
1.1344
1.3406
1.3922
1.3406
1.534
1.5469
1.5855
1.4309
1.3793
1.3922
1.5469
1.5082
1.3535
1.3664
1.5469
1.5984
1.6113
1.766
1.8305
1.882
1.8176
1.7789
1.7789
1.5469
1.3148
1.3535
1.3277
1.2375
1.2504
1.4309
1.6629
1.7016
1.5855
1.5211
1.3922
1.302
1.3406
1.4051
1.3793
1.2891
1.3535
1.4566
1.5211
1.6242
1.766
1.7273
1.7145
1.65
1.7145
1.65
1.5727
1.5984
1.534
1.4824
1.5082
1.4309
1.4695
1.5984
1.6371
1.6113
1.5855
1.6887
1.7016
1.6629
1.7402
1.6758
1.5727
1.534
1.5984
1.6629
1.6242
1.5984
1.6113
1.6371
1.6113
1.5082
1.418
1.6242
1.6113
1.5082
1.6113
1.6242
1.534
1.5082
1.4824
1.4824
1.4953
1.4953
1.4437
1.4051
1.3406
1.2891
1.3148
1.5082
1.4437
1.3664
1.3406
1.4953
1.6629
1.6242
1.6113
1.534
1.4695
1.4953
1.5469
1.5727
1.5984
1.6371
1.6371
1.7145
1.6371
1.7145
1.7145
1.5855
1.5211
1.3535
1.2117
1.3664
1.4824
1.5211
1.5598
1.5082
1.4953
1.3406
1.3277
1.4824
1.6629
1.7016
1.6371
1.5211
1.5211
1.5984
1.5855
1.6371
1.7789
1.7789
1.8047
1.5855
1.5082
1.418
1.4437
1.6371
1.5469
1.4437
1.4309
1.4824
1.5211
1.4695
1.6371
1.6758
1.5598
1.4566
1.5211
1.6629
1.6629
1.5855
1.5727
1.65
1.5469
1.5469
1.6113
1.7016
1.6629
1.5984
1.6113
1.5855
1.4953
1.4953
1.5469
1.5984
1.6242
1.5727
1.5469
1.534
1.4953
1.4695
1.5211
1.5855
1.5984
1.534
1.4953
1.418
1.2762
1.2375
1.4051
1.7402
1.7273
1.6113
1.5469
1.5598
1.5727
1.4953
1.4309
1.4566
1.4953
1.5469
1.5082
1.418
1.3535
1.3535
1.4437
1.534
1.7273
1.7531
1.6629
1.3793
1.1859
1.1988
1.2762
1.3277
1.5727
1.7145
1.8176
1.8434
1.8305
1.7789
1.65
1.5984
1.4566
1.4309
1.4953
1.5727
1.6113
1.6629
1.7016
1.6113
1.5469
1.5598
1.5082
1.4824
1.5082
1.6371
1.7789
1.7145
1.6242
1.65
1.5855
1.5082
1.5598
1.5727
1.5855
1.6242
1.6629
1.6629
1.7145
1.7273
1.5469
1.5211
1.5469
1.5598
1.6113
1.4824
1.4695
1.4953
1.6371
1.65
1.5082
1.4824
1.5082
1.5082
1.5469
1.5984
1.5598
1.5082
1.5211
1.534
1.5211
1.534
1.5984
1.6242
1.6758
1.5727
1.5082
1.4566
1.5469
1.5469
1.3664
1.3793
1.3793
1.2762
1.3406
1.418
1.3664
1.418
1.534
1.4824
1.534
1.6887
1.7402
1.5855
1.534
1.5211
1.4824
1.4953
1.5082
1.4309
1.3793
1.4566
1.5082
1.5727
1.5598
1.5211
1.5855
1.6758
1.6887
1.7016
1.65
1.6113
1.5855
1.4437
1.4824
1.534
1.5082
1.4309
1.5984
1.7145
1.6629
1.6113
1.6242
1.6758
1.6629
1.5984
1.5984
1.6242
1.6629
1.6629
1.6113
1.5598
1.5727
1.4953
1.5855
1.6371
1.534
1.4695
1.5082
1.418
1.4309
1.5598
1.6887
1.6242
1.4051
1.4953
1.4566
1.4437
1.6242
1.7016
1.5211
1.4437
1.534
1.4953
1.4695
1.5469
1.5984
1.5727
1.4953
1.4051
1.3148
1.3922
1.4309
1.6242
1.7789
1.7273
1.6242
1.5855
1.5598
1.534
1.5727
1.5598
1.4437
1.302
1.3664
1.3922
1.3922
1.2504
1.2891
1.4051
1.4437
1.5598
1.6113
1.6887
1.766
1.6887
1.5855
1.4953
1.4309
1.4309
1.5469
1.7016
1.65
1.6629
1.6887
1.6887
1.6113
1.4824
1.534
1.65
1.5598
1.4437
1.3535
1.2762
1.1602
1.1215
1.2504
1.4695
1.7918
1.8434
1.5082
1.4309
1.4309
1.5984
1.7016
1.5984
1.5855
1.7016
1.7402
1.7402
1.766
1.8434
1.7531
1.6629
1.5855
1.6371
1.5855
1.5855
1.6629
1.6242
1.4953
1.4566
1.4953
1.4953
1.65
1.6242
1.5598
1.534
1.4695
1.4437
1.418
1.4824
1.5211
1.4566
1.418
1.5727
1.6113
1.6113
1.6371
1.6113
1.5598
1.5469
1.5855
1.5598
1.3406
1.3406
1.534
1.7016
1.5984
1.4437
1.5082
1.4051
1.3922
1.4566
1.4695
1.4051
1.3406
1.3793
1.5469
1.6371
1.5211
1.5855
1.5082
1.3922
1.4437
1.6629
1.7918
1.5984
1.534
1.5598
1.2891
1.0828
1.1215
1.2246
1.2375
1.4051
1.5469
1.6629
1.8949
2.1141
1.9336
1.6242
1.5855
1.5727
1.418
1.4566
1.4824
1.5855
1.6371
1.65
1.6371
1.6629
1.6629
1.534
1.4824
1.5855
1.6758
1.6887
1.5727
1.4566
1.534
1.5984
1.5598
1.5855
1.6113
1.534
1.5469
1.6758
1.6113
1.4437
1.3535
1.4309
1.4824
1.2375
1.2375
1.2375
1.2762
1.3793
1.4566
1.5855
1.6629
1.6371
1.5727
1.65
1.534
1.4953
1.5211
1.65
1.6629
1.5727
1.4953
1.4824
1.6113
1.6629
1.5469
1.4309
1.4566
1.418
1.5598
1.6242
1.5211
1.418
1.3664
1.3535
1.3535
1.2891
1.2633
1.3922
1.4824
1.5855
1.6113
1.534
1.4437
1.3535
1.3922
1.4051
1.4824
1.5984
1.6887
1.6758
1.7016
1.7531
1.7402
1.6242
1.5469
1.4953
1.3664
1.2117
1.2117
1.3148
1.4309
1.534
1.7402
1.8691
1.7531
1.6758
1.5082
1.5082
1.4824
1.3535
1.4309
1.7145
1.6887
1.6371
1.5984
1.6242
1.5727
1.5211
1.6113
1.4695
1.534
1.6113
1.5598
1.418
1.3406
1.3922
1.3664
1.2504
1.2762
1.3277
1.4309
1.4824
1.65
1.7273
1.5082
1.3406
1.2891
1.4437
1.6887
1.7402
1.766
1.6629
1.6371
1.7789
1.8176
1.5984
1.3664
1.302
1.2762
1.3148
1.3922
1.4695
1.5082
1.3793
1.2633
1.3406
1.4566
1.5984
1.7016
1.6113
1.4309
1.4309
1.3922
1.3406
1.4051
1.6113
1.7145
1.4566
1.2633
1.3922
1.4695
1.4695
1.2504
1.3664
1.6242
1.7273
1.6629
1.5855
1.5598
1.3406
1.2246
1.2246
1.2891
1.4695
1.6371
1.4953
1.4953
1.5727
1.6887
1.7016
1.8434
1.9078
1.8176
1.5984
1.4824
1.4566
1.4437
1.5598
1.5082
1.3793
1.3664
1.3793
1.3277
1.3535
1.4051
1.3148
1.4437
1.5984
1.7016
1.7402
1.6371
1.5469
1.5855
1.6371
1.5598
1.5469
1.6371
1.4953
1.3922
1.3406
1.3793
1.2762
1.2117
1.1602
1.2891
1.5211
1.3406
1.4051
1.65
1.766
1.7918
1.7016
1.5469
1.3922
1.3535
1.418
1.5855
1.8176
1.7402
1.6887
1.3793
1.1344
1.2246
1.1344
1.2762
1.6242
1.7531
1.6887
1.6371
1.6113
1.6887
1.5727
1.6887
1.6113
1.5082
1.3793
1.4051
1.4566
1.3922
1.4824
1.6371
1.8691
1.8047
1.6629
1.4437
1.418
1.5855
1.5727
1.4051
1.3793
1.4437
1.5598
1.5855
1.3793
1.3664
1.4437
1.6242
1.6758
1.5727
1.4953
1.3793
1.3277
1.3664
1.4051
1.3664
1.4437
1.5598
1.5082
1.6242
1.8691
1.9465
1.7531
1.4953
1.3793
1.4437
1.4309
1.2504
1.1602
1.0957
1.1473
1.3277
1.534
1.6113
1.5598
1.6242
1.5469
1.4309
1.5727
1.6371
1.3406
1.3148
1.534
1.6113
1.6371
1.6887
1.6371
1.5727
1.6371
1.5727
1.5855
1.4824
1.3406
1.3148
1.2375
1.3535
1.8176
1.7402
1.5855
1.6242
1.4051
1.3535
1.2246
1.2117
1.3535
1.4695
1.3277
1.418
1.4051
1.418
1.2246
1.3535
1.4695
1.4695
1.4953
1.3922
1.2117
1.2504
1.5598
1.4566
1.4309
1.7918
1.8563
1.7918
1.6758
1.6758
1.5082
1.4824
1.6242
1.882
1.7402
1.5727
1.5211
1.4566
1.5984
1.6371
1.3535
1.4051
1.6371
1.65
1.5855
1.65
1.6887
1.5211
1.3406
1.2504
1.2891
1.3664
1.5855
1.7016
1.7145
1.7531
1.6629
1.4051
1.2117
1.2891
1.4309
1.5984
1.6371
1.6242
1.6113
1.4824
1.4437
1.5082
1.4566
1.4437
1.4437
1.3664
1.2117
1.1602
1.4051
1.4437
1.4695
1.6242
1.5984
1.2246
1.0313
1.0184
0.9926
1.0313
1.2633
1.5211
1.882
1.5984
1.4437
1.6371
1.6758
1.8691
2.0625
1.9078
1.65
1.5727
1.4309
1.3406
1.0828
1.1344
1.3922
1.3922
1.534
1.5984
1.5598
1.7016
1.534
1.5211
1.3793
1.2762
1.3793
1.534
1.6113
1.5082
1.6371
1.6113
1.5469
1.5211
1.5984
1.6113
1.6371
1.5855
1.5598
1.4824
1.4824
1.5469
1.6371
1.6242
1.4695
1.5469
1.5598
1.7402
1.7789
1.6371
1.418
1.4051
1.2246
1.3148
1.3535
1.3406
1.3664
1.3406
1.4953
1.5598
1.6242
1.418
1.3664
1.5727
1.6371
1.5469
1.5855
1.4953
1.4051
1.2891
1.1602
1.0699
1.0699
1.1988
1.4309
1.6629
1.8305
1.5984
1.3535
1.5984
1.534
1.5984
1.6242
1.2117
1.0055
1.0828
1.1859
1.2504
1.7273
1.7016
1.65
1.8949
1.8176
1.7402
1.7273
1.6113
1.6113
1.6242
1.5082
1.4695
1.3922
1.4437
1.6113
1.6629
1.6629
1.534
1.5211
1.65
1.5727
1.3277
1.3406
1.4824
1.4051
1.3793
1.4695
1.4309
1.4437
1.6113
1.8047
1.6887
1.4824
1.4051
1.5598
1.7402
1.7402
1.7531
1.8434
1.6242
1.4051
1.5082
1.418
1.2633
1.2504
1.2246
1.2504
1.4953
1.6758
1.6371
1.6371
1.5984
1.4566
1.2633
1.2375
1.2246
1.3664
1.5984
1.5727
1.3277
1.3535
1.3277
1.3535
1.5469
1.5598
1.4051
1.2504
1.0828
0.8895
0.9281
1.1215
1.4953
1.8691
2.2043
2.1141
1.766
1.6113
1.534
1.534
1.5082
1.534
1.5727
1.6629
1.534
1.4437
1.4953
1.418
1.3148
1.4695
1.5211
1.4695
1.534
1.6113
1.4437
1.302
1.1602
1.1344
1.0055
1.3922
1.9078
1.766
1.8305
1.7531
1.5469
1.5598
1.534
1.5855
1.7273
1.8949
1.9594
1.9723
1.9207
1.5469
1.2246
1.1988
1.2117
1.3793
1.5984
1.7402
1.65
1.7531
1.6887
1.6629
1.6113
1.534
1.4566
1.3406
1.4051
1.3664
1.2891
1.418
1.4051
1.3535
1.3535
1.4051
1.4051
1.3148
1.3793
1.5211
1.534
1.65
1.5727
1.4953
1.4309
1.3922
1.1859
1.1344
1.2504
1.5082
1.5598
1.534
1.5469
1.5727
1.4566
1.2762
1.3664
1.534
1.5855
1.4953
1.3277
1.3406
1.3535
1.3922
1.6242
1.6371
1.7016
1.9078
1.8176
1.6242
1.6242
1.766
1.7273
1.6113
1.4953
1.4695
1.1086
1.0441
1.2117
1.418
1.4566
1.534
1.7918
1.882
1.7789
1.7016
1.4824
1.4824
1.6113
1.6242
1.5082
1.4953
1.5211
1.6242
1.6629
1.5855
1.6113
1.3793
1.4437
1.534
1.4437
1.4437
1.4437
1.534
1.5598
1.5082
1.4566
1.5469
1.5984
1.7145
1.6113
1.4953
1.4695
1.4824
1.3922
1.418
1.5855
1.7789
1.8176
1.65
1.5598
1.534
1.4953
1.4953
1.534
1.4051
1.2375
1.3277
1.2891
1.173
1.1086
1.3277
1.5211
1.3922
1.534
1.6887
1.5211
1.4051
1.1859
1.2891
1.882
1.9465
1.766
1.534
1.3922
1.3793
1.3664
1.3535
1.3922
1.4695
1.534
1.5855
1.5598
1.6371
1.6758
1.6758
1.5082
1.2762
1.2375
1.302
1.3793
1.5082
1.766
1.8691
1.766
1.6371
1.4566
1.5211
1.6887
1.6758
1.5727
1.5598
1.5727
1.4695
1.534
1.5211
1.3793
1.302
1.3277
1.4695
1.6113
1.7145
1.5984
1.6629
1.7273
1.7016
1.5984
1.6113
1.6629
1.5727
1.4695
1.4953
1.3277
1.2246
1.2891
1.5211
1.5082
1.418
1.65
1.8563
1.6371
1.2891
1.2375
1.3922
1.5082
1.3922
1.3793
1.5082
1.5469
1.5727
1.4437
1.418
1.4566
1.5598
1.4566
1.5469
1.5211
1.4566
1.3793
1.1859
1.0699
1.2375
1.302
1.4051
1.5469
1.6371
1.534
1.4566
1.6887
1.7531
1.6242
1.65
1.6629
1.7273
1.5598
1.5984
1.4953
1.5211
1.5211
1.534
1.4953
1.4566
1.4824
1.534
1.7016
1.5855
1.4953
1.5598
1.6371
1.6758
1.6758
1.7273
1.65
1.3664
1.3664
1.3535
1.2891
1.1344
1.0828
1.3406
1.4566
1.4953
1.6629
1.8305
1.8949
1.7531
1.6242
1.6242
1.5855
1.4051
1.3664
1.302
1.2633
1.2891
1.4051
1.418
1.3922
1.4695
1.5598
1.5855
1.6371
1.6887
1.65
1.4566
1.3664
1.4051
1.4437
1.4437
1.6758
1.7402
1.5727
1.534
1.3664
1.3664
1.4695
1.6758
1.6887
1.6371
1.3664
0.9797
0.9023
1.0957
1.3277
1.7402
1.8949
1.8563
1.65
1.4051
1.3535
1.2762
1.3277
1.4824
1.6887
1.7145
1.6371
1.5984
1.534
1.5082
1.5727
1.5984
1.4437
1.4051
1.4953
1.6887
1.8305
1.7402
1.5469
1.5598
1.4824
1.3148
1.2891
1.2504
1.3277
1.4695
1.6242
1.882
1.65
1.4824
1.4309
1.3922
1.3922
1.4695
1.6113
1.6113
1.6371
1.6758
1.6629
1.65
1.4695
1.1473
1.1859
1.1344
1.1344
1.3922
1.7531
1.5082
1.1086
1.1344
1.2504
1.4051
1.7145
1.9078
1.7789
1.6242
1.3277
1.2375
1.3922
1.4566
1.5469
1.4824
1.5082
1.418
1.5598
1.418
1.2633
1.4437
1.5984
1.6758
1.6629
1.4437
1.5469
1.65
1.5469
1.5469
1.7531
1.7145
1.5855
1.3793
1.1988
1.3277
1.2891
1.1988
1.2891
1.6371
1.7402
1.6887
1.6242
1.418
1.5082
1.65
1.6371
1.6113
1.6758
1.8434
1.7402
1.3664
1.2762
1.2375
1.4953
1.7016
1.5855
1.8176
2.0883
1.8434
1.7145
1.5211
1.3922
1.4566
1.3406
1.1988
1.3535
1.2762
1.1859
1.3922
1.3148
1.1988
1.2246
1.2504
1.5727
1.6629
1.65
1.4824
1.2762
1.1344
1.2375
1.3922
1.3406
1.2762
1.0055
1.057
1.2117
1.6887
1.766
1.6371
1.4309
1.4309
1.7016
1.9336
1.7789
1.5727
1.4953
1.5855
1.7789
1.5211
1.2891
1.3277
1.3535
1.418
1.5855
1.5082
1.1086
1.0699
1.2891
1.4309
1.5727
1.9078
1.8434
1.7918
1.7789
1.7402
1.5984
1.5855
1.3922
1.5082
1.5082
1.4695
1.534
1.7531
1.8434
1.7402
1.6758
1.534
1.2762
1.2117
1.5855
1.65
1.6758
1.65
1.5469
1.4566
1.6242
1.7531
1.7531
1.65
1.7145
1.5211
1.3664
1.4566
1.6242
1.7789
1.8305
1.6887
1.3277
1.302
1.4824
1.5082
1.65
1.8047
1.7273
1.5598
1.418
1.4051
1.4824
1.3277
1.2762
1.3148
1.3535
1.3793
1.2117
1.0957
0.9539
0.8379
0.7863
0.9152
1.1086
1.3148
1.8434
2.2301
1.882
1.3535
1.302
1.3922
1.3922
1.7016
1.65
1.1215
0.9281
1.3535
1.7789
1.998
1.766
1.6887
1.7145
1.6887
1.65
1.7273
1.8305
1.6887
1.4695
1.4695
1.5082
1.5855
1.5727
1.5855
1.5855
1.6113
1.7145
1.7273
1.766
1.7402
1.6629
1.173
1.0699
1.0957
1.1859
1.3922
1.6113
1.8176
1.766
1.6629
1.6242
1.5984
1.6371
1.7145
1.7145
1.6887
1.5984
1.7531
1.5855
1.3277
1.3664
1.3664
1.4953
1.6242
1.6242
1.534
1.5082
1.5082
1.5598
1.6242
1.5984
1.4437
1.3922
1.3793
1.3148
1.3922
1.4051
1.4309
1.4437
1.5082
1.4309
1.4051
1.4824
1.4824
1.5211
1.4953
1.4566
1.5211
1.6371
1.5598
1.4309
1.3793
1.302
1.2504
1.2891
1.0699
0.8508
0.8379
1.1859
1.3406
1.5984
2.0496
1.9594
1.7273
1.4566
1.1215
1.2633
1.5727
1.5984
1.5984
1.5984
1.6113
1.6113
1.5727
1.534
1.6758
1.7273
1.7273
1.7531
1.7918
1.7016
1.5082
1.4953
1.5598
1.5598
1.5727
1.5211
1.4566
1.534
1.5727
1.4566
1.3922
1.5082
1.65
1.7918
1.9078
1.6758
1.4051
1.4437
1.5211
1.534
1.4953
1.1602
1.1344
1.3664
1.302
1.4051
1.4953
1.5598
1.5984
1.65
1.7402
1.7402
1.5984
1.5984
1.65
1.6242
1.5855
1.4309
1.4824
1.5984
1.6887
1.5598
1.3922
1.1473
1.057
1.2891
1.2375
1.2633
1.3535
1.3922
1.4695
1.6113
1.7016
1.7402
1.7145
1.5082
1.5082
1.6242
1.6629
1.5984
1.3148
1.1473
1.1215
1.1344
1.0441
1.2762
1.7273
1.8691
1.7789
1.6113
1.6371
1.7016
1.6113
1.4437
1.4309
1.3793
1.3535
1.418
1.4824
1.2633
1.1215
1.0184
1.3793
1.8434
1.9336
1.8691
1.8949
1.766
1.7402
1.7145
1.6629
1.5727
1.5727
1.5727
1.5727
1.5598
1.5727
1.5598
1.5855
1.6758
1.6887
1.5082
1.3922
1.5082
1.4566
1.4437
1.5855
1.6887
1.65
1.3922
1.1988
1.0055
1.1473
1.302
1.5211
1.8434
1.6758
1.5984
1.8563
1.9078
1.7016
1.5984
1.4824
1.534
1.5984
1.6371
1.6629
1.65
1.5082
1.3535
1.4309
1.4309
1.3406
1.3922
1.2891
1.1602
1.1473
1.2246
1.3922
1.3535
1.2762
1.4566
1.5211
1.3406
1.2633
1.2375
1.2633
1.5855
1.6371
1.6629
1.7531
1.7273
1.5855
1.4695
1.3922
1.5082
1.4824
1.5855
1.7145
1.7016
1.5211
1.4566
1.4437
1.4566
1.4437
1.4437
1.2891
1.1859
1.302
1.5211
1.534
1.4824
1.5727
1.7273
1.65
1.6113
1.65
1.7273
1.7273
1.7789
1.7789
1.6242
1.3793
1.3148
1.3148
1.3664
1.418
1.6887
1.7789
1.4953
1.534
1.5211
1.5082
1.5082
1.5984
1.5211
1.6629
1.6629
1.5727
1.4824
1.5984
1.3793
1.1988
1.3148
1.6371
1.9723
1.6242
0.9668
1.1602
1.6371
1.7789
1.766
1.8691
1.8563
1.766
1.4824
1.3406
1.0441
0.9023
1.302
1.4566
1.5211
1.6371
1.8047
1.7789
1.8563
1.5727
1.3922
1.5082
1.6758
1.4824
1.3148
1.173
1.0441
0.9281
0.8379
1.1602
1.5082
1.7016
2.0238
2.0625
1.7531
1.6758
1.5855
1.5598
1.5469
1.6113
1.4566
1.3922
1.4309
1.5727
1.5984
1.7273
1.6629
1.418
1.2633
1.2117
1.1859
1.4309
1.7531
1.6371
1.4051
1.2504
1.0957
1.2375
1.4437
1.418
1.5082
1.534
1.5984
1.6887
1.4953
1.4566
1.4051
1.5727
1.7273
1.6887
1.7145
1.7273
1.6887
1.6113
1.5211
1.2504
1.3148
1.6113
1.8434
1.766
1.534
1.4566
1.4953
1.5082
1.4309
1.534
1.5727
1.4695
1.4953
1.5082
1.4309
1.4953
1.6371
1.6371
1.5855
1.5469
1.5211
1.7016
1.7273
1.6758
1.6113
1.4824
1.4566
1.5598
1.5082
1.4824
1.6371
1.5082
1.2891
1.3664
1.5469
1.5984
1.5469
1.5727
1.5211
1.5727
1.5469
1.5598
1.5727
1.5082
1.173
1.0055
1.0313
1.1859
1.1344
1.418
1.6887
1.8305
1.7145
1.3277
1.0699
1.1602
1.1344
1.3148
1.6242
1.7918
1.998
1.8691
1.4566
1.1988
1.173
1.2762
1.5211
1.8434
1.8949
1.8563
1.7789
1.6758
1.6887
1.6629
1.6242
1.5727
1.534
1.5211
1.5855
1.6242
1.5984
1.6758
1.9336
1.8305
1.534
1.4695
1.3664
1.3277
1.2633
1.3793
1.302
1.2246
1.4051
1.4309
1.4695
1.4051
1.3793
1.6113
1.8691
1.8176
1.6371
1.4051
1.4051
1.3664
1.418
1.6242
1.65
1.5211
1.1859
1.173
1.4051
1.65
1.5082
1.5082
1.766
1.8434
1.65
1.5082
1.6887
1.5598
1.3406
1.3535
1.3406
1.4566
1.6113
1.4695
1.4824
1.65
1.65
1.4309
1.6758
1.882
1.7402
1.2375
0.9668
0.8895
0.9797
1.2762
1.7016
1.882
1.882
1.8691
1.7402
1.7402
1.7016
1.6113
1.5855
1.5469
1.5598
1.4953
1.4824
1.65
1.8176
1.7531
1.6629
1.7145
1.6629
1.6242
1.6242
1.5855
1.5855
1.5984
1.5855
1.5469
1.5727
1.6113
1.5855
1.65
1.7145
1.7145
1.7273
1.7402
1.6887
1.534
1.4566
1.4051
1.3535
1.418
1.4953
1.4309
1.3535
1.4051
1.3793
1.173
1.3277
1.3664
1.5469
1.5984
1.65
1.5469
1.4824
1.3793
1.302
1.4953
1.5469
1.5984
1.5727
1.4051
1.4051
1.5469
1.5855
1.6887
1.65
1.5469
1.3922
1.2117
1.3535
1.4309
1.3277
1.302
1.3148
1.534
1.9594
2.0754
1.7789
1.3922
1.1988
1.1859
1.2762
1.418
1.6887
1.7402
1.6758
1.6758
1.7145
1.6887
1.5211
1.3148
1.3406
1.2891
1.1086
1.0957
1.0828
1.0828
1.302
1.65
1.5598
1.302
1.5598
1.7531
1.6629
1.7145
1.8434
1.8563
1.7531
1.7273
1.7789
1.7789
1.7789
1.7273
1.6887
1.6629
1.6371
1.6113
1.6758
1.7145
1.7273
1.7273
1.5727
1.4051
1.5855
1.5984
1.766
1.7402
1.5727
1.5855
1.6371
1.4695
1.3793
1.3535
1.4437
1.534
1.4953
1.418
1.5469
1.3793
1.2633
1.4566
1.6629
1.8305
1.7531
1.5082
1.3922
1.5469
1.4566
1.5211
1.6629
1.534
1.3793
1.5598
1.6371
1.4437
1.3277
1.2375
1.1988
1.2246
1.3793
1.4824
1.5211
1.5598
1.5082
1.4309
1.5469
1.5855
1.5727
1.6113
1.6887
1.8434
1.6371
1.4566
1.4824
1.4695
1.2504
1.0441
0.8766
0.941
1.1859
1.4309
1.6887
1.882
2.0238
1.8691
1.7789
1.7531
1.7531
1.7531
1.6758
1.6629
1.7145
1.6113
1.6242
1.766
1.7402
1.6629
1.4824
1.418
1.418
1.5211
1.5598
1.4437
1.4437
1.534
1.5855
1.5598
1.5211
1.4953
1.4824
1.4953
1.4695
1.534
1.5469
1.5598
1.5598
1.6758
1.8949
1.7145
1.5727
1.5727
1.4695
1.5082
1.5984
1.5598
1.5855
1.534
1.418
1.418
1.4695
1.4953
1.5082
1.3535
1.2891
1.3664
1.534
1.4695
1.3793
1.5727
1.6887
1.6629
1.65
1.6758
1.7016
1.65
1.5727
1.5469
1.5211
1.5469
1.5469
1.5727
1.7145
1.7016
1.4953
1.3535
1.2633
1.1473
1.2117
1.2504
1.4309
1.4309
1.3148
1.2891
1.418
1.3535
1.2246
1.3535
1.6371
1.6887
1.6113
1.534
1.5469
1.5727
1.5082
1.6242
1.7145
1.6113
1.534
1.5984
1.5469
1.5469
1.5082
1.5598
1.5082
1.5211
1.5598
1.5598
1.7016
1.7016
1.418
1.2891
1.4309
1.5211
1.534
1.4824
1.5211
1.6629
1.6371
1.65
1.7273
1.5727
1.5855
1.5855
1.5211
1.4953
1.6371
1.6887
1.6242
1.6242
1.5855
1.5082
1.5984
1.6629
1.6629
1.6758
1.5984
1.6242
1.7273
1.6371
1.4437
1.4566
1.4566
1.4695
1.5469
1.5469
1.5727
1.5211
1.3535
1.2246
1.3406
1.3535
1.2762
1.3793
1.5984
1.6371
1.6371
1.6242
1.6758
1.6113
1.534
1.5211
1.4309
1.2117
1.2117
1.3664
1.3535
1.5211
1.4824
1.3664
1.1859
1.1988
1.302
1.2246
1.3922
1.4953
1.65
1.8047
1.8563
1.766
1.8176
1.7789
1.7918
1.8047
1.6887
1.5855
1.5855
1.6113
1.5984
1.6371
1.5984
1.4953
1.4695
1.4953
1.4309
1.418
1.4309
1.3148
1.3922
1.4309
1.4566
1.5727
1.7145
1.8949
1.7016
1.4437
1.3535
1.3922
1.4695
1.7273
1.766
1.7145
1.6113
1.4695
1.3793
1.4953
1.5469
1.6887
1.7531
1.4309
1.4309
1.418
1.4824
1.5469
1.5727
1.5598
1.534
1.5211
1.6371
1.6113
1.5984
1.5082
1.3793
1.2375
1.2375
1.302
1.3277
1.418
1.5211
1.5855
1.5727
1.5469
1.65
1.6371
1.6758
1.6629
1.5598
1.4824
1.3664
1.4051
1.4437
1.5984
1.4437
1.4824
1.3793
1.3664
1.6371
1.9207
1.7789
1.6242
1.5727
1.4566
1.4953
1.6113
1.4824
1.3922
1.4695
1.4566
1.3148
1.1602
1.3793
1.6371
1.766
1.766
1.6887
1.5082
1.4051
1.4051
1.3922
1.4309
1.534
1.6887
1.7016
1.6629
1.5598
1.4824
1.5082
1.5469
1.534
1.4953
1.4437
1.4824
1.5855
1.6887
1.65
1.4953
1.4953
1.5469
1.5082
1.5598
1.5984
1.6758
1.6113
1.4953
1.5727
1.65
1.6113
1.6887
1.7016
1.4695
1.302
1.2762
1.3148
1.2891
1.3793
1.4695
1.3793
1.3664
1.1602
1.3148
1.4566
1.3277
1.4051
1.6629
1.7531
1.6113
1.5211
1.4309
1.4695
1.6113
1.6113
1.534
1.5855
1.6758
1.5727
1.65
1.6242
1.3535
1.3277
1.3406
1.4437
1.418
1.4953
1.5598
1.5598
1.4824
1.4824
1.4309
1.4953
1.6758
1.6629
1.6887
1.65
1.5469
1.4695
1.5211
1.5727
1.5727
1.5598
1.6242
1.6629
1.7016
1.6113
1.5211
1.4824
1.4695
1.4953
1.5984
1.5469
1.5082
1.5082
1.5598
1.6113
1.6242
1.6371
1.6113
1.5727
1.5082
1.3922
1.3406
1.3406
1.3535
1.2891
1.3277
1.4309
1.5082
1.5727
1.7145
1.766
1.7145
1.6758
1.6371
1.5469
1.4566
1.4051
1.4051
1.3793
1.2891
1.2375
1.418
1.4695
1.3793
1.4309
1.65
1.5984
1.418
1.4309
1.534
1.5855
1.5469
1.534
1.5469
1.5984
1.6113
1.5211
1.5211
1.4695
1.418
1.4824
1.4824
1.3793
1.3406
1.418
1.4695
1.65
1.7531
1.7145
1.4695
1.3922
1.5984
1.7016
1.6758
1.6113
1.6242
1.6242
1.6113
1.6242
1.5598
1.4437
1.5469
1.5855
1.5855
1.5598
1.4309
1.4695
1.5211
1.5984
1.6242
1.5727
1.534
1.5727
1.5984
1.6113
1.4309
1.3664
1.4695
1.5082
1.5598
1.534
1.5984
1.5984
1.534
1.534
1.4824
1.5469
1.5984
1.5727
1.4695
1.4309
1.3535
1.173
1.2246
1.418
1.3535
1.2891
1.2117
1.2117
1.2375
1.2375
1.4566
1.6371
1.7273
1.7145
1.7402
1.6371
1.418
1.3664
1.3922
1.2891
1.2504
1.3793
1.418
1.4309
1.6113
1.766
1.5984
1.418
1.4437
1.534
1.7273
1.7402
1.8047
1.6758
1.6242
1.6242
1.8176
1.9078
1.6629
1.6113
1.5727
1.534
1.5984
1.534
1.5469
1.5469
1.5984
1.6371
1.534
1.4824
1.5469
1.5598
1.6629
1.7789
1.65
1.5082
1.4695
1.4695
1.3922
1.5211
1.4953
1.2633
1.3277
1.4566
1.4824
1.4437
1.534
1.4051
1.3535
1.4566
1.4695
1.5469
1.5727
1.6371
1.6242
1.5469
1.4566
1.4309
1.5598
1.4953
1.4437
1.418
1.4051
1.3664
1.3148
1.2633
1.1602
1.2633
1.418
1.5727
1.4953
1.5855
1.6113
1.5727
1.5469
1.5469
1.4437
1.534
1.5727
1.5984
1.5598
1.4566
1.3277
1.1602
1.2504
1.2762
1.418
1.6371
1.6629
1.534
1.3148
1.2246
1.3148
1.4695
1.65
1.8305
1.9078
1.7918
1.6242
1.6371
1.6887
1.5984
1.4309
1.3793
1.3277
1.4695
1.5598
1.5469
1.7016
1.7402
1.6887
1.4953
1.4824
1.5598
1.534
1.4051
1.3793
1.5727
1.7145
1.6242
1.534
1.5727
1.6629
1.6371
1.5082
1.418
1.2246
1.2504
1.3793
1.418
1.5211
1.7016
1.6758
1.6113
1.65
1.5984
1.5984
1.5984
1.6242
1.4953
1.4309
1.3793
1.3664
1.4566
1.5469
1.65
1.65
1.6113
1.5984
1.5598
1.4566
1.3664
1.3406
1.3793
1.4566
1.5855
1.6113
1.5082
1.5469
1.5598
1.4953
1.418
1.302
1.2504
1.3277
1.534
1.7016
1.4051
1.1602
1.1215
1.2375
1.3922
1.6629
1.9078
1.7789
1.5727
1.3922
1.2504
1.2891
1.3277
1.2633
1.2762
1.0828
0.8895
1.1344
1.4953
1.7402
1.8434
1.6758
1.7145
1.5598
1.5984
1.6758
1.7273
1.7402
1.7402
1.7273
1.418
1.4953
1.6113
1.7273
1.6242
1.5082
1.5727
1.534
1.65
1.6758
1.5211
1.534
1.5855
1.5855
1.4824
1.5469
1.6113
1.6242
1.5984
1.5469
1.534
1.4953
1.6371
1.5082
1.5211
1.4695
1.3277
1.3277
1.2891
1.2633
1.3793
1.4309
1.3793
1.4437
1.5211
1.5855
1.5984
1.534
1.5082
1.534
1.4566
1.3148
1.1602
1.1859
1.3406
1.4695
1.4953
1.6242
1.534
1.4695
1.2762
1.0828
1.1215
1.1602
1.2117
1.3535
1.6371
1.8176
1.8563
1.766
1.6887
1.6629
1.6242
1.5855
1.418
1.2762
1.302
1.5855
1.5727
1.3277
1.1602
0.9926
0.9023
0.9926
1.3277
1.6113
1.766
1.8563
1.9207
1.8563
1.6887
1.5855
1.4309
1.302
1.4309
1.5727
1.5727
1.4437
1.418
1.4953
1.5469
1.4695
1.5082
1.534
1.7273
1.7145
1.6629
1.7273
1.7273
1.7145
1.8691
1.4566
1.4695
1.6371
1.4953
1.2891
1.2375
1.3664
1.5598
1.7273
1.7273
1.7016
1.4824
1.3148
1.2504
1.4309
1.2891
1.3148
1.534
1.5727
1.2891
1.5469
1.6629
1.5469
1.4824
1.534
1.4824
1.2504
1.173
1.1859
1.173
1.173
1.1859
1.2891
1.4051
1.5082
1.8047
1.8434
1.7918
1.5855
1.3406
1.302
1.1988
1.0828
1.0828
1.3277
1.65
1.8176
1.6113
1.534
1.4309
1.4953
1.534
1.4953
1.4824
1.4695
1.418
1.4953
1.5855
1.4695
1.2762
1.3793
1.534
1.5984
1.6629
1.5598
1.534
1.65
1.5598
1.4824
1.5855
1.65
1.5598
1.5469
1.4824
1.4824
1.5469
1.5082
1.4824
1.4566
1.534
1.5984
1.4824
1.2762
1.4051
1.4309
1.3664
1.3148
1.1344
1.1344
1.1859
1.5855
1.9465
1.9852
1.9465
1.7789
1.6113
1.4695
1.5984
1.6371
1.7145
1.6113
1.4695
1.3922
1.418
1.4824
1.5211
1.4953
1.5984
1.5855
1.5082
1.5082
1.4953
1.3535
1.2117
1.3793
1.4695
1.4309
1.418
1.4566
1.4309
1.3535
1.3793
1.4824
1.5082
1.3793
1.4051
1.5984
1.6371
1.5211
1.5855
1.6242
1.5598
1.4566
1.4051
1.4051
1.4437
1.6113
1.5211
1.4695
1.5598
1.6242
1.5211
1.4309
1.4437
1.4566
1.4437
1.3793
1.418
1.4695
1.4566
1.5211
1.5727
1.6629
1.4437
1.2891
1.1988
1.1602
1.2762
1.4824
1.5855
1.5984
1.7016
1.6113
1.4824
1.3922
1.3406
1.4437
1.5082
1.6242
1.6629
1.5855
1.5984
1.534
1.5727
1.5984
1.5598
1.5855
1.5082
1.4824
1.5469
1.5855
1.3922
1.4566
1.6242
1.4695
1.5469
1.534
1.418
1.3148
1.3406
1.4953
1.3406
1.5082
1.5598
1.302
1.2117
1.4566
1.5598
1.6629
1.8047
1.7145
1.4953
1.5082
1.5211
1.5211
1.3793
1.3406
1.4437
1.3664
1.302
1.3148
1.534
1.534
1.5598
1.6371
1.5727
1.5082
1.4437
1.5598
1.5855
1.5469
1.6887
1.65
1.5598
1.5469
1.3793
1.2375
1.2375
1.302
1.3922
1.4824
1.4953
1.4309
1.5211
1.5984
1.6887
1.7918
1.7918
1.65
1.4309
1.2504
1.1215
1.173
1.3535
1.5855
1.5469
1.4051
1.302
1.4051
1.5727
1.6113
1.6113
1.6371
1.6629
1.5469
1.5727
1.5727
1.5727
1.5469
1.6113
1.6371
1.6371
1.6113
1.534
1.534
1.5469
1.4695
1.2633
1.1988
1.3535
1.4695
1.5855
1.5984
1.6242
1.5984
1.6371
1.65
1.5984
1.534
1.418
1.4953
1.6371
1.5984
1.4695
1.4309
1.5082
1.5469
1.2762
1.173
1.4566
1.6371
1.65
1.6242
1.6629
1.534
1.5855
1.6371
1.5469
1.4695
1.4051
1.5082
1.534
1.4953
1.4566
1.4695
1.3793
1.1215
1.173
1.3535
1.5211
1.534
1.4566
1.4566
1.3922
1.2891
1.3664
1.3277
1.3277
1.4437
1.6758
1.6242
1.6629
1.8176
1.8047
1.6371
1.534
1.5211
1.5469
1.534
1.418
1.3793
1.3793
1.4566
1.5082
1.4953
1.5211
1.4695
1.5211
1.4309
1.3664
1.4051
1.5598
1.5984
1.5727
1.5855
1.5727
1.5598
1.534
1.4566
1.4695
1.534
1.5598
1.5855
1.5469
1.5727
1.534
1.5855
1.5598
1.5727
1.6113
1.5984
1.5598
1.5211
1.5082
1.4953
1.4437
1.4566
1.5855
1.534
1.302
1.1859
1.3148
1.4824
1.6242
1.5855
1.4437
1.5082
1.6113
1.6242
1.6371
1.5469
1.534
1.5984
1.5855
1.4953
1.4695
1.5855
1.6242
1.7402
1.766
1.6758
1.5598
1.4309
1.3406
1.2633
1.1988
1.3922
1.6629
1.6887
1.7402
1.534
1.4566
1.4051
1.4824
1.5855
1.3922
1.2246
1.3277
1.5598
1.8563
1.65
1.3793
1.302
1.418
1.5727
1.7273
1.882
1.7531
1.5727
1.5727
1.65
1.5855
1.4695
1.3406
1.3406
1.2891
1.2504
1.4309
1.418
1.5469
1.65
1.4824
1.3148
1.3793
1.5211
1.6113
1.6242
1.5984
1.6371
1.6629
1.6113
1.5469
1.3922
1.2117
1.2117
1.418
1.5984
1.5727
1.5469
1.6242
1.65
1.5469
1.6113
1.7402
1.766
1.6887
1.5855
1.534
1.534
1.5211
1.4953
1.5469
1.534
1.4437
1.3406
1.3535
1.4566
1.4566
1.4824
1.534
1.3793
1.4309
1.4824
1.5082
1.5984
1.4824
1.3922
1.1473
1.0184
0.9539
1.2375
1.4566
1.65
1.8563
1.766
1.5727
1.5855
1.5984
1.5469
1.6629
1.7273
1.8305
1.8563
1.6371
1.534
1.6113
1.5855
1.4566
1.3277
1.2633
1.4953
1.6371
1.6629
1.5211
1.4695
1.4824
1.5082
1.7531
1.7918
1.4437
1.1602
1.2762
1.418
1.4695
1.6113
1.6629
1.5598
1.65
1.6371
1.5984
1.5984
1.5855
1.65
1.5598
1.4824
1.5082
1.5855
1.6371
1.6242
1.5984
1.5855
1.4953
1.2633
1.0441
0.9152
0.9797
1.1602
1.3148
1.4437
1.882
1.9723
1.8305
1.6758
1.6629
1.6758
1.6758
1.6113
1.5855
1.534
1.4953
1.4695
1.4437
1.4566
1.5082
1.4566
1.418
1.65
1.7789
1.7789
1.6629
1.4953
1.4566
1.4437
1.3793
1.4309
1.5598
1.6629
1.5984
1.5598
1.5598
1.4824
1.4695
1.5598
1.6113
1.5469
1.4824
1.5211
1.6113
1.5211
1.4437
1.4437
1.4824
1.4437
1.4824
1.534
1.6242
1.6113
1.6242
1.6758
1.4824
1.4051
1.3148
1.4051
1.4953
1.5211
1.5211
1.5598
1.5469
1.3277
1.173
1.4051
1.6113
1.5984
1.7145
1.7531
1.6629
1.5211
1.3793
1.3793
1.5598
1.5469
1.6242
1.6887
1.65
1.5984
1.4566
1.534
1.5727
1.5727
1.5984
1.6242
1.5727
1.5211
1.3406
1.2891
1.3664
1.3535
1.2633
1.4695
1.8047
1.6371
1.418
1.4051
1.4566
1.65
1.5598
1.5984
1.5469
1.5598
1.6371
1.7145
1.7402
1.6242
1.6113
1.6371
1.4695
1.3922
1.3277
1.1859
1.1859
1.3535
1.5598
1.6113
1.6113
1.766
1.7531
1.4953
1.2762
1.1602
1.2375
1.418
1.6629
1.9078
1.9078
1.8305
1.7918
1.7016
1.6371
1.6113
1.65
1.6629
1.6758
1.5855
1.5211
1.5855
1.6242
1.5727
1.5855
1.65
1.5984
1.5727
1.6371
1.7402
1.6629
1.5727
1.5855
1.5984
1.5211
1.3922
1.2762
1.2633
1.4309
1.534
1.6371
1.6371
1.7531
1.766
1.5984
1.5082
1.5855
1.6113
1.4824
1.3406
1.5211
1.6371
1.4695
1.4566
1.5469
1.5211
1.4051
1.4051
1.5082
1.5211
1.534
1.5855
1.5469
1.4953
1.65
1.6242
1.65
1.6371
1.534
1.4695
1.534
1.4566
1.3148
1.4051
1.4953
1.3664
1.2375
1.2375
1.2891
1.3664
1.4566
1.4953
1.5855
1.5727
1.5984
1.5598
1.7145
1.5727
1.4051
1.418
1.4437
1.3922
1.3922
1.5469
1.7016
1.6371
1.534
1.5211
1.3922
1.4309
1.5598
1.6242
1.5727
1.4953
1.4566
1.4953
1.5984
1.6371
1.6629
1.6887
1.6758
1.7016
1.5855
1.5727
1.65
1.5984
1.4824
1.5727
1.6629
1.5469
1.3664
1.3793
1.4824
1.534
1.5082
1.5469
1.418
1.3406
1.4695
1.65
1.8047
1.7789
1.7016
1.5598
1.4824
1.4437
1.3148
1.3277
1.534
1.7531
1.5727
1.4309
1.5727
1.7145
1.7145
1.65
1.6113
1.5727
1.534
1.5727
1.5082
1.4309
1.4566
1.4566
1.4566
1.5598
1.5727
1.4566
1.4309
1.5598
1.534
1.4437
1.4437
1.5082
1.5598
1.5598
1.5727
1.5727
1.5855
1.5984
1.5211
1.4566
1.3793
1.3535
1.3535
1.418
1.4051
1.4051
1.4437
1.4309
1.4309
1.4953
1.4824
1.4953
1.4695
1.4695
1.3922
1.3277
1.5082
1.5598
1.5211
1.7273
1.8305
1.7918
1.6371
1.5469
1.5211
1.3922
1.2633
1.2762
1.534
1.6887
1.6242
1.7016
1.7273
1.65
1.6113
1.6371
1.4695
1.4824
1.4953
1.4953
1.4824
1.6371
1.6629
1.5727
1.6758
1.7016
1.5082
1.4566
1.6113
1.5211
1.4824
1.534
1.5211
1.5082
1.5211
1.5855
1.7273
1.5855
1.4824
1.4566
1.4953
1.5211
1.4824
1.3664
1.1859
1.2246
1.302
1.3664
1.4695
1.5469
1.6758
1.8434
1.6113
1.4437
1.4437
1.3922
1.4566
1.5211
1.5855
1.6758
1.7016
1.6113
1.4824
1.3406
1.3406
1.4566
1.5211
1.3664
1.2246
1.2117
1.3406
1.3793
1.3277
1.6758
1.9078
1.766
1.534
1.5855
1.6629
1.5469
1.5211
1.5984
1.5598
1.4824
1.4566
1.4695
1.4953
1.4309
1.4309
1.4566
1.3535
1.2375
1.3922
1.6629
1.7789
1.8176
1.7918
1.65
1.5469
1.5984
1.65
1.5469
1.5469
1.6887
1.5727
1.3793
1.4437
1.5211
1.4437
1.4566
1.6371
1.6887
1.5855
1.6113
1.5211
1.4695
1.5082
1.65
1.6629
1.5855
1.6113
1.6371
1.7402
1.7016
1.6113
1.3793
1.1859
1.2117
1.2633
1.3277
1.3535
1.4309
1.5855
1.4309
1.2633
1.3535
1.5082
1.4953
1.5082
1.5984
1.5469
1.4695
1.3922
1.3148
1.3535
1.4437
1.5727
1.6242
1.3535
1.1859
1.0828
1.0184
1.0184
1.1215
1.6629
1.9465
1.9336
1.8691
1.7145
1.5598
1.3406
1.3664
1.418
1.3793
1.3664
1.4437
1.6629
1.7016
1.65
1.6371
1.6629
1.7402
1.8047
1.6758
1.4953
1.3664
1.2504
1.2246
1.2246
1.3148
1.4309
1.4824
1.534
1.4051
1.4051
1.3535
1.3922
1.4309
1.4437
1.4309
1.5598
1.7273
1.7273
1.5469
1.5984
1.4824
1.4566
1.4824
1.4824
1.5855
1.7273
1.7402
1.6242
1.6113
1.65
1.5598
1.5082
1.5598
1.5469
1.4695
1.4824
1.4437
1.4437
1.4309
1.5211
1.418
1.2762
1.3277
1.2891
1.2117
1.3277
1.3922
1.3148
1.3535
1.418
1.418
1.3793
1.5211
1.766
1.7531
1.5984
1.5211
1.4437
1.4824
1.5598
1.6242
1.6758
1.6758
1.5984
1.4566
1.3148
1.1215
1.1859
1.2117
1.3277
1.3406
1.2633
1.2891
1.418
1.6113
1.5469
1.5727
1.4695
1.3793
1.5469
1.6758
1.8176
1.7789
1.5598
1.4824
1.5727
1.5727
1.6371
1.5855
1.5211
1.3277
1.2762
1.2633
1.2117
1.2891
1.4051
1.5082
1.5469
1.534
1.534
1.5727
1.5211
1.4824
1.4437
1.4309
1.4824
1.418
1.3277
1.3148
1.3664
1.418
1.4051
1.4309
1.3793
1.3922
1.4437
1.4566
1.4953
1.5211
1.4695
1.4953
1.4824
1.5082
1.4824
1.5598
1.4695
1.4051
1.3664
1.2762
1.3664
1.4309
1.3793
1.3406
1.4309
1.5984
1.6629
1.5469
1.4309
1.4695
1.4437
1.418
1.5211
1.4051
1.3664
1.4566
1.4695
1.4824
1.5469
1.6113
1.5211
1.5598
1.6113
1.4695
1.3793
1.3406
1.2891
1.5211
1.5211
1.5469
1.5598
1.4051
1.5082
1.6113
1.534
1.5598
1.5727
1.6242
1.4953
1.3922
1.3535
1.3664
1.302
1.2246
1.0699
1.1473
1.173
1.302
1.4566
1.4437
1.5598
1.6113
1.5598
1.4695
1.4051
1.4695
1.4953
1.5082
1.5469
1.6242
1.5984
1.5469
1.5855
1.5211
1.5598
1.5598
1.5082
1.3664
1.2117
1.1859
1.3148
1.4051
1.418
1.3664
1.3535
1.4437
1.4437
1.302
1.1859
1.3793
1.4824
1.534
1.6758
1.7789
1.5082
1.3406
1.2891
1.2375
1.1859
1.2246
1.302
1.3535
1.3922
1.3922
1.5082
1.6242
1.5984
1.4309
1.418
1.4695
1.418
1.418
1.3793
1.418
1.4695
1.4437
1.4824
1.5727
1.5855
1.5469
1.534
1.5855
1.4566
1.4051
1.4309
1.3664
1.3277
1.3664
1.4824
1.4309
1.302
1.4437
1.5984
1.6758
1.4953
1.2504
1.173
1.0828
1.1086
1.0699
1.1859
1.2633
1.2633
1.4309
1.5211
1.4566
1.4437
1.5855
1.5727
1.5211
1.4695
1.4695
1.4824
1.5598
1.5598
1.2762
1.173
1.1215
1.1859
1.3793
1.7273
1.8047
1.534
1.418
1.5211
1.65
1.5211
1.3922
1.3406
1.1988
1.173
1.2762
1.5082
1.5082
1.4309
1.5211
1.5598
1.5211
1.4953
1.5469
1.5469
1.4309
1.4051
1.4953
1.3535
1.2117
1.1988
1.3664
1.7145
1.5469
1.5211
1.6758
1.6887
1.4824
1.418
1.4566
1.5211
1.5082
1.4695
1.4437
1.5082
1.4437
1.534
1.5211
1.3664
1.3535
1.2504
1.3148
1.4953
1.4437
1.1473
0.8895
1.0441
1.2633
1.4566
1.6113
1.6242
1.4953
1.4953
1.5727
1.5469
1.5855
1.6371
1.5598
1.4953
1.5082
1.4437
1.4437
1.4437
1.4566
1.3406
1.2891
1.2891
1.3664
1.4437
1.3535
1.3535
1.3922
1.3535
1.3922
1.4309
1.4051
1.1473
1.1215
1.2504
1.2762
1.3922
1.5211
1.418
1.2762
1.3277
1.302
1.2375
1.3535
1.4695
1.4437
1.2891
1.1859
1.1602
1.3793
1.5855
1.534
1.5855
1.5469
1.418
1.3406
1.3922
1.5082
1.6113
1.5598
1.4566
1.4695
1.5855
1.534
1.2633
1.1215
1.1473
1.1988
1.3277
1.4309
1.6242
1.5855
1.4309
1.4695
1.534
1.4824
1.4953
1.5211
1.534
1.4953
1.418
1.4824
1.4824
1.4695
1.3148
1.418
1.4566
1.2375
1.3664
1.4953
1.4953
1.4953
1.65
1.5469
1.5082
1.3664
1.3148
1.3664
1.2633
1.302
1.3793
1.2762
1.3148
1.4695
1.5469
1.4953
1.5082
1.4566
1.3664
1.4309
1.4824
1.4824
1.534
1.4437
1.302
1.2246
1.2891
1.2891
1.3277
1.3535
1.418
1.4309
1.3922
1.418
1.4566
1.3535
1.2762
1.1215
1.2891
1.4051
1.3535
1.3148
1.4051
1.5598
1.5211
1.3922
1.302
1.1988
1.2762
1.2246
1.173
1.3535
1.65
1.6629
1.5727
1.4695
1.3406
1.302
1.3148
1.3922
1.3664
1.4824
1.6242
1.65
1.6113
1.534
1.5598
1.4953
1.4695
1.5082
1.5211
1.5211
1.5082
1.5082
1.534
1.534
1.5082
1.418
1.3664
1.3922
1.3922
1.4566
1.4309
1.4437
1.4953
1.4051
1.1988
1.2117
1.302
1.4051
1.3922
1.3922
1.4051
1.3406
1.4051
1.4309
1.2762
1.302
1.3922
1.4309
1.3535
1.418
1.4051
1.3406
1.3535
1.418
1.3277
1.1215
1.057
1.0441
1.2246
1.5082
1.6371
1.7145
1.5855
1.4566
1.4437
1.418
1.4051
1.4309
1.5469
1.3535
1.1988
1.2504
1.3148
1.2762
1.2633
1.3148
1.173
1.0828
1.1602
1.4437
1.4051
1.5082
1.6629
1.5469
1.5211
1.5469
1.4437
1.3406
1.2633
1.2504
1.2504
1.3535
1.5082
1.5211
1.3406
1.302
1.4309
1.4695
1.4566
1.4437
1.4566
1.4695
1.4566
1.4824
1.534
1.5469
1.3793
1.302
1.3148
1.3406
1.5855
1.5984
1.418
1.3664
1.3664
1.3535
1.3664
1.3277
1.4437
1.4309
1.3277
1.2762
1.5082
1.4953
1.4566
1.418
1.3922
0.9539
0.9281
0.9926
1.0828
1.1859
1.3922
1.6371
1.7273
1.6758
1.5211
1.4309
1.3406
1.2891
1.3277
1.3406
1.3922
1.534
1.5469
1.5082
1.4309
1.418
1.3535
1.4051
1.4309
1.1215
1.0184
0.9926
1.0184
0.941
1.1344
1.6887
1.6887
1.5855
1.4824
1.5211
1.4953
1.3922
1.4695
1.534
1.3922
1.2504
1.1988
1.1859
1.173
1.1988
1.418
1.5211
1.4953
1.4437
1.4566
1.5727
1.65
1.6113
1.4953
1.418
1.4309
1.4695
1.5598
1.5082
1.4437
1.3922
1.5211
1.4824
1.4566
1.3922
1.3277
1.3277
1.3148
1.3664
1.3922
1.3793
1.3406
1.3922
1.3406
1.4051
1.4051
1.3793
1.4566
1.3922
1.3277
1.3922
1.3922
1.302
1.173
1.1859
1.1215
1.1602
1.2246
1.2633
1.4695
1.6242
1.5727
1.4309
1.2633
1.173
1.1215
1.1215
1.1988
1.3148
1.534
1.6758
1.6113
1.4824
1.4566
1.4437
1.4824
1.4953
1.2504
1.1086
1.057
0.941
0.7477
0.8637
1.0441
1.2504
1.3406
1.534
1.65
1.5984
1.5469
1.6242
1.5469
1.4437
1.4309
1.4566
1.4437
1.4309
1.3922
1.3277
1.2633
1.2246
1.2375
1.2891
1.1988
1.1988
1.4437
1.5727
1.4953
1.4695
1.4953
1.4824
1.5082
1.6242
1.6113
1.5082
1.4953
1.4953
1.4953
1.4051
1.3922
1.4437
1.4437
1.3922
1.418
1.3922
1.3922
1.4695
1.4051
1.3922
1.4437
1.4051
1.3535
1.4309
1.4309
1.3793
1.2891
1.2633
1.3277
1.302
1.3148
1.3148
1.3277
1.3406
1.3148
1.2246
1.1988
1.1602
1.3406
1.3664
1.302
1.3148
1.4437
1.5598
1.418
1.3793
1.3922
1.3406
1.3277
1.4824
1.5855
1.418
1.2891
1.1086
0.9926
0.8766
0.9023
1.1602
1.3277
1.5082
1.7531
1.6242
1.4309
1.302
1.3277
1.3664
1.302
1.2117
1.173
1.2246
1.3406
1.4695
1.4824
1.3793
1.3148
1.4051
1.4437
1.4566
1.4695
1.418
1.3535
1.302
1.3277
1.3664
1.4051
1.3793
1.2246
1.2633
1.3922
1.3922
1.3148
1.3535
1.4566
1.5082
1.4953
1.4437
1.4566
1.3406
1.3664
1.4437
1.418
1.4566
1.5469
1.5727
1.4437
1.302
1.3277
1.3148
1.2375
1.1988
1.2504
1.418
1.4437
1.3922
1.3406
1.2375
1.1473
1.2762
1.3664
1.3535
1.2633
1.2504
1.4309
1.5469
1.4566
1.5082
1.5598
1.5727
1.5598
1.4695
1.418
1.4051
1.2891
1.2762
1.3148
1.2375
1.1344
1.2504
1.3406
1.2504
1.2246
1.3406
1.3406
1.3406
1.3406
1.5855
1.6758
1.6113
1.4051
1.2504
1.2504
1.3277
1.2633
1.173
1.057
1.2246
1.4437
1.5082
1.418
1.4051
1.3406
1.2891
1.3664
1.3277
1.2891
1.3535
1.4051
1.2891
1.2117
1.302
1.3664
1.3793
1.5984
1.8176
1.5984
1.3922
1.2762
1.1859
1.3148
1.3535
1.3535
1.3535
1.4051
1.4051
1.2891
1.2633
1.3148
1.3922
1.3793
1.4695
1.4695
1.3922
1.2891
1.3148
1.3793
1.3922
1.302
1.1859
1.1602
1.0699
1.1344
1.1859
1.2375
1.2504
1.3277
1.5211
1.5469
1.5082
1.5082
1.5211
1.5082
1.4824
1.5469
1.5727
1.4566
1.3793
1.3535
1.3277
1.3406
1.302
1.302
1.3535
1.2891
1.1988
1.1344
1.2117
1.302
1.3793
1.4953
1.4695
1.3277
1.4051
1.3793
1.3148
1.2762
1.3922
1.418
1.3148
1.2633
1.3148
1.418
1.4566
1.3406
1.4051
1.5211
1.534
1.5469
1.4051
1.3277
1.4695
1.4824
1.3664
1.2891
1.3535
1.3793
1.3922
1.302
1.173
1.0828
1.1859
1.3922
1.3535
1.3793
1.5082
1.5211
1.5082
1.3664
1.3406
1.1473
1.3535
1.5082
1.5211
1.5082
1.4566
1.4437
1.4566
1.4437
1.3664
1.2504
1.173
1.0699
0.9668
1.1988
1.534
1.4953
1.4309
1.1859
1.0313
1.1215
1.1473
1.173
1.1859
1.302
1.3406
1.3664
1.5469
1.5469
1.4824
1.4566
1.4309
1.3148
1.2246
1.2375
1.2891
1.4309
1.4824
1.4824
1.4695
1.5984
1.6242
1.5082
1.4051
1.3148
1.3535
1.4309
1.418
1.418
1.4695
1.5855
1.4953
1.3277
1.2891
1.2375
1.3148
1.2633
1.0828
1.0184
1.2117
1.4824
1.5984
1.5727
1.4953
1.3535
1.2891
1.2891
1.3277
1.2633
1.2762
1.4309
1.5598
1.534
1.4309
1.418
1.3148
1.2891
1.3664
1.3148
1.2375
1.3148
1.4051
1.4695
1.418
1.3664
1.3664
1.3535
1.3277
1.3406
1.3277
1.2504
1.2117
1.1988
1.3535
1.418
1.5082
1.302
1.0184
0.9926
1.1215
1.2246
1.4309
1.65
1.6371
1.4824
1.5211
1.7145
1.4953
1.3277
1.3793
1.173
1.057
1.0055
1.0441
1.1344
1.1859
1.3922
1.5211
1.5598
1.4566
1.2891
1.4309
1.4309
1.3793
1.3535
1.534
1.5211
1.3793
1.4051
1.534
1.5984
1.5469
1.4051
1.2891
1.1988
1.1602
1.3664
1.3664
1.3922
1.5082
1.5727
1.5727
1.4953
1.4309
1.5082
1.4566
1.302
1.2375
1.1988
1.302
1.4566
1.4309
1.2633
1.2762
1.3406
1.4824
1.5469
1.4824
1.4051
1.4051
1.3148
1.2762
1.302
1.4309
1.4824
1.4051
1.3148
1.2633
1.3277
1.4309
1.3664
1.3793
1.4051
1.3406
1.418
1.3406
1.1988
1.0828
1.302
1.5082
1.5598
1.5469
1.4437
1.173
1.0313
1.0828
1.0699
1.1602
1.5855
1.8434
1.6113
1.4824
1.3406
1.3535
1.3922
1.2504
1.1988
1.3148
1.4051
1.4695
1.4437
1.4695
1.3793
1.1602
1.1602
0.941
0.825
1.0828
1.4824
1.7273
1.534
1.3148
1.2246
1.2375
1.4309
1.5211
1.5727
1.3922
1.2375
1.1859
1.2891
1.3793
1.3922
1.5082
1.418
1.3277
1.3664
1.5598
1.6113
1.5469
1.4953
1.4566
1.3793
1.418
1.418
1.3922
1.3793
1.3406
1.2633
1.4309
1.7016
1.4953
1.2891
1.3148
1.5211
1.4695
1.2762
1.3535
1.3922
1.3148
1.1988
1.2633
1.4824
1.6242
1.4824
1.5211
1.4695
1.5211
1.5211
1.4051
1.3922
1.4566
1.3535
1.2633
1.2504
1.2117
1.173
1.1086
1.057
1.2117
1.4695
1.5211
1.4695
1.4566
1.2891
1.2762
1.3277
1.1602
0.9668
1.1473
1.3664
1.4566
1.5469
1.6371
1.4437
1.173
1.0055
1.0441
1.3535
1.4695
1.2762
1.1988
1.2375
1.3922
1.2633
1.2891
1.5082
1.534
1.4566
1.4953
1.4824
1.3922
1.3922
1.418
1.4051
1.2762
1.302
1.4309
1.5211
1.5211
1.5082
1.3664
1.173
1.1215
1.2117
1.3664
1.3277
1.418
1.5598
1.5855
1.5598
1.5727
1.4566
1.3922
1.3535
1.3793
1.3922
1.3664
1.2891
1.2633
1.2246
1.2504
1.2762
1.418
1.4437
1.4824
1.4437
1.3535
1.1859
1.0699
1.1086
1.0313
0.9668
1.2117
1.5727
1.6371
1.5727
1.4824
1.6242
1.4824
1.4309
1.3922
1.4824
1.4695
1.2633
1.3406
1.5469
1.4566
1.3406
1.3535
1.4051
1.3535
1.3535
1.3793
1.418
1.4051
1.5469
1.65
1.4309
1.1988
1.1988
1.2504
1.2762
1.3406
1.2891
1.2633
1.2246
1.3406
1.3277
1.2117
1.1602
1.1086
1.0441
1.0957
1.2891
1.4824
1.6887
1.7273
1.6371
1.4695
1.2375
1.2117
1.1086
1.1086
1.2633
1.5211
1.3922
1.1602
1.057
1.1988
1.4437
1.5211
1.4566
1.3406
1.3793
1.3406
1.3535
1.4309
1.4695
1.4566
1.3664
1.3148
1.302
1.2891
1.2891
1.4695
1.5984
1.5469
1.2891
1.302
1.3664
1.3277
1.3664
1.3406
1.4437
1.5082
1.4566
1.3277
1.3148
1.3922
1.4051
1.4437
1.5082
1.4437
1.2633
1.1859
1.2762
1.3277
1.3277
1.302
1.4695
1.5984
1.4566
1.3664
1.4051
1.4695
1.4824
1.418
1.3922
1.3406
1.2504
1.2762
1.3148
1.2891
1.1859
1.1473
1.0957
0.9926
1.1086
1.2633
1.418
1.5082
1.6113
1.7531
1.7145
1.5598
1.4309
1.4437
1.4566
1.3535
1.2891
1.3148
1.3148
1.3277
1.3664
1.3277
1.3148
1.302
1.2117
1.2246
1.3664
1.4566
1.5469
1.418
1.2633
1.3277
1.057
0.941
1.3793
1.3406
1.2246
1.2891
1.4437
1.5082
1.5211
1.534
1.5598
1.5469
1.5469
1.4695
1.4824
1.418
1.3406
1.3406
1.3148
1.3922
1.4437
1.4309
1.2891
1.1988
1.302
1.418
1.2891
0.9023
0.8766
0.8379
0.9023
1.2633
1.4437
1.6887
1.7918
1.7402
1.6758
1.5984
1.5984
1.5984
1.5727
1.5727
1.534
1.418
1.3535
1.4309
1.3793
1.4309
1.4437
1.4566
1.4824
1.4695
1.4309
1.3535
1.3535
1.4051
1.5211
1.3406
1.2762
1.3406
1.3664
1.3535
1.3148
1.3535
1.3277
1.2633
1.1988
1.2504
1.4437
1.5211
1.534
1.3922
1.302
1.302
1.302
1.3535
1.4566
1.4566
1.4566
1.4824
1.4953
1.4309
1.5082
1.4953
1.3535
1.3664
1.3148
1.2375
1.2246
1.2633
1.2117
1.1602
1.1086
1.1602
1.3922
1.4309
1.4309
1.5598
1.5211
1.4695
1.3277
1.2762
1.3793
1.418
1.2633
1.173
1.1215
0.9668
0.9539
0.9539
1.0441
1.1215
1.0184
1.1602
1.5984
1.8047
1.5211
1.4051
1.2891
1.2762
1.4695
1.7273
1.7145
1.5984
1.5598
1.4953
1.4953
1.5211
1.4824
1.4953
1.5082
1.5082
1.5855
1.5727
1.5469
1.4437
1.3406
1.3406
1.3922
1.3922
1.418
1.4953
1.5598
1.5082
1.4824
1.4437
1.4309
1.3793
1.302
1.4051
1.4437
1.3148
1.3664
1.4051
1.4309
1.4824
1.4437
1.418
1.4824
1.5598
1.5727
1.4695
1.3664
1.2504
1.2375
1.3277
1.3406
1.3148
1.3664
1.3793
1.3277
1.3406
1.4051
1.4953
1.6113
1.5082
1.4437
1.2891
1.1859
1.2246
1.1988
1.2117
1.2504
1.302
1.3922
1.3922
1.3922
1.3406
1.2504
1.0441
0.9281
0.9023
1.057
1.1473
1.173
1.4953
1.7016
1.6113
1.6371
1.534
1.4309
1.3406
1.2762
1.2504
1.418
1.7273
1.7789
1.5598
1.4309
1.4051
1.3793
1.3535
1.3793
1.2633
1.1344
1.057
1.1988
1.4566
1.6242
1.6629
1.6758
1.6371
1.4824
1.3664
1.4437
1.3922
1.2762
1.2375
1.2633
1.3148
1.418
1.5984
1.5984
1.4309
1.3922
1.4309
1.3922
1.3277
1.4437
1.6113
1.534
1.4824
1.3922
1.3922
1.4051
1.3793
1.3922
1.3664
1.3148
1.2633
1.2117
1.2246
1.2117
1.1344
1.0313
1.0184
1.0699
1.4437
1.6887
1.3664
1.1344
1.1473
1.2633
1.1086
1.302
1.5598
1.6629
1.8047
1.7402
1.7273
1.7273
1.7273
1.6242
1.534
1.4824
1.3922
1.1602
1.1086
1.2891
1.302
1.302
1.2891
1.3535
1.4437
1.418
1.4953
1.4437
1.2117
1.0184
1.1344
1.4051
1.4695
1.4309
1.4953
1.5727
1.5855
1.534
1.4953
1.5598
1.5727
1.534
1.4309
1.2504
1.2504
1.3406
1.4566
1.4437
1.4437
1.5082
1.4566
1.4695
1.534
1.5855
1.4953
1.4437
1.3406
1.302
1.3406
1.4051
1.2633
1.2375
1.3277
1.302
1.3535
1.418
1.3535
1.3148
1.3664
1.4051
1.4953
1.5727
1.5598
1.3922
0.9926
0.9152
0.9926
0.9926
1.2117
1.7402
1.7016
1.3277
1.2891
1.1473
0.7992
0.7863
0.8637
0.825
1.1086
1.6371
1.7016
1.3793
1.2117
1.173
1.6758
2.0238
1.9594
1.9078
1.7531
1.5855
1.3793
1.302
1.3922
1.4695
1.4051
1.3664
1.4953
1.3664
1.302
1.4824
1.7145
1.65
1.4953
1.5727
1.6371
1.4695
1.3277
1.302
1.3535
1.4051
1.4953
1.3277
1.1215
1.173
1.302
1.534
1.7402
1.7016
1.5082
1.3793
1.3793
1.4051
1.4824
1.4437
1.4566
1.3793
1.3535
1.4437
1.3922
1.4309
1.5082
1.418
1.4051
1.4566
1.4051
1.3148
1.2375
1.2246
1.3148
1.4566
1.5211
1.4695
1.3793
1.2633
1.1988
1.1344
1.2891
1.4695
1.5855
1.4695
1.418
1.4309
1.4824
1.3793
1.3664
1.2246
1.2504
1.418
1.5598
1.4437
1.1988
1.0441
1.0055
1.0055
1.1344
1.3664
1.3406
1.3406
1.4824
1.5469
1.4051
1.3922
1.5984
1.7402
1.7273
1.6629
1.4695
1.3277
1.3406
1.2504
1.2891
1.4824
1.3793
1.5855
1.65
1.5082
1.3535
1.4437
1.5082
1.4824
1.6629
1.6758
1.7145
1.6371
1.5082
1.4051
1.4051
1.4309
1.3664
1.4051
1.5082
1.4437
1.4309
1.4309
1.3922
1.3406
1.3535
1.4695
1.5855
1.5727
1.534
1.5211
1.4824
1.4824
1.3664
1.3406
1.4051
1.5211
1.5469
1.4566
1.4437
1.4309
1.4051
1.3793
1.3793
1.2891
1.2246
1.2762
1.2633
1.3277
1.302
1.3277
1.3277
1.3922
1.3148
1.418
1.5727
1.65
1.5984
1.3922
1.1602
1.1215
1.1602
1.2504
1.4953
1.5211
1.5211
1.7016
1.766
1.6242
1.4309
1.4824
1.4824
1.4953
1.418
1.3148
1.4437
1.534
1.418
1.2762
1.0828
1.0957
1.1988
1.3148
1.4695
1.5082
1.5082
1.418
1.2762
1.4824
1.6113
1.65
1.6371
1.5727
1.5855
1.6371
1.534
1.3148
1.2891
1.3793
1.4824
1.6113
1.5984
1.6758
1.6371
1.5469
1.4695
1.4824
1.4953
1.5469
1.4566
1.3277
1.2633
1.3148
1.4309
1.5082
1.5211
1.5211
1.5469
1.5598
1.5469
1.5598
1.5082
1.4051
1.302
1.3148
1.3664
1.3793
1.3793
1.2633
1.2504
1.3922
1.4953
1.4824
1.5082
1.4566
1.4695
1.5082
1.5082
1.4566
1.418
1.3535
1.3406
1.4051
1.4824
1.5082
1.4566
1.3535
1.3277
1.302
1.1988
1.1086
1.1859
1.2633
1.1988
1.3406
1.4824
1.6113
1.5469
1.3793
1.2891
1.2633
1.2375
1.1988
1.2504
1.173
1.3148
1.302
1.2246
1.2504
1.4953
1.7531
1.65
1.4309
1.5082
1.6887
1.7789
1.766
1.5984
1.4309
1.3922
1.418
1.4824
1.5469
1.534
1.6371
1.6113
1.5211
1.3277
1.2375
1.3277
1.2375
1.3793
1.5469
1.6629
1.6242
1.5598
1.534
1.5598
1.5082
1.4953
1.418
1.4309
1.4051
1.418
1.4566
1.5469
1.5469
1.4953
1.4566
1.5211
1.6242
1.5727
1.418
1.3406
1.3535
1.418
1.4437
1.5469
1.6113
1.5855
1.4824
1.3922
1.302
1.2117
1.2762
1.1086
1.0828
1.0699
0.9539
0.9797
1.3148
1.5727
1.7145
1.9594
1.9078
1.7016
1.5211
1.4309
1.3922
1.3793
1.3535
1.3148
1.1859
1.1473
1.0313
1.1215
1.302
1.4695
1.4695
1.3535
1.3535
1.4695
1.7402
1.8176
1.6758
1.5211
1.4953
1.5211
1.4437
1.3922
1.4051
1.3922
1.4953
1.4309
1.4051
1.4437
1.5211
1.5469
1.6113
1.5598
1.5082
1.5469
1.6242
1.4695
1.3664
1.4051
1.4309
1.3793
1.4566
1.6242
1.6758
1.4824
1.3664
1.418
1.5211
1.3793
1.2117
1.3535
1.4051
1.5082
1.5598
1.4953
1.4309
1.4309
1.3922
1.3535
1.4566
1.5469
1.5211
1.4437
1.4695
1.4695
1.5469
1.5727
1.5598
1.4824
1.4051
1.3664
1.3535
1.3664
1.4566
1.6113
1.5598
1.418
1.3664
1.3406
1.3406
1.3406
1.302
1.2117
1.2504
1.418
1.4309
1.3793
1.4824
1.5082
1.5984
1.6887
1.6242
1.5855
1.4824
1.4437
1.4953
1.5469
1.418
1.302
1.173
1.057
0.9668
0.9926
1.2117
1.4437
1.4953
1.5598
1.65
1.6113
1.4437
1.418
1.4437
1.5082
1.6758
1.65
1.6758
1.7016
1.6629
1.5082
1.3406
1.3406
1.3664
1.4695
1.5469
1.4824
1.4566
1.302
1.3277
1.5082
1.5469
1.5727
1.6887
1.65
1.4309
1.3535
1.3277
1.3406
1.4051
1.418
1.4695
1.5211
1.534
1.5469
1.5211
1.4309
1.3922
1.4051
1.4437
1.4953
1.6113
1.7531
1.6113
1.4695
1.4309
1.4051
1.4437
1.418
1.3277
1.2891
1.2891
1.3148
1.5211
1.65
1.5855
1.5727
1.5469
1.4953
1.3793
1.3148
1.173
1.1086
1.173
1.1215
1.1859
1.3664
1.4953
1.4309
1.4953
1.6758
1.8176
1.5855
1.418
1.3406
1.2633
1.2117
1.1859
1.418
1.6242
1.5211
1.3793
1.3277
1.1344
1.0313
1.0184
1.3148
1.6371
1.7531
1.7016
1.5984
1.6113
1.6371
1.5984
1.4953
1.5082
1.5469
1.5469
1.5727
1.4953
1.4309
1.4824
1.5211
1.4566
1.418
1.418
1.3922
1.3664
1.4051
1.418
1.5082
1.6629
1.6242
1.5469
1.534
1.4953
1.3922
1.3406
1.4309
1.4051
1.4051
1.5855
1.6371
1.5984
1.5082
1.418
1.3793
1.534
1.5727
1.4566
1.3922
1.3793
1.418
1.4824
1.4695
1.418
1.3148
1.2633
1.3406
1.4566
1.5082
1.4953
1.5211
1.4566
1.4051
1.4051
1.3535
1.4051
1.3793
1.2633
1.2375
1.2117
1.2117
1.2246
1.418
1.4695
1.3664
1.2633
1.3793
1.3793
1.2117
1.0699
0.8766
1.0184
1.1602
1.3406
1.6242
1.8305
1.8563
1.6371
1.5727
1.5469
1.4824
1.5469
1.6242
1.6371
1.5855
1.4051
1.4309
1.5984
1.3793
1.1859
1.1988
1.3922
1.2762
1.2117
1.3148
1.4309
1.4695
1.534
1.5855
1.8305
1.8047
1.5598
1.4953
1.4695
1.534
1.5598
1.5984
1.4309
1.4566
1.3922
1.4437
1.5469
1.5469
1.4437
1.3922
1.4824
1.4953
1.4051
1.418
1.4309
1.3793
1.0828
1.0699
1.2117
1.2762
1.4051
1.6242
1.6113
1.4953
1.4824
1.534
1.5598
1.4695
1.4695
1.5727
1.6629
1.418
1.302
1.2504
1.2504
1.4051
1.3793
1.4953
1.5984
1.5855
1.3148
1.2891
1.3535
1.3664
1.418
1.2762
1.0699
0.941
1.2117
1.302
1.2891
1.2762
1.3922
1.5211
1.7402
1.5082
1.3148
1.2633
1.1344
1.2117
1.4695
1.6242
1.6371
1.5469
1.1602
0.9797
1.057
1.2375
1.3922
1.5855
1.882
1.6629
1.418
1.3793
1.4695
1.7016
1.8305
1.7016
1.6371
1.5855
1.6113
1.5855
1.5598
1.5082
1.534
1.5469
1.4824
1.5082
1.4051
1.4051
1.4824
1.4953
1.3793
1.4051
1.418
1.3922
1.4309
1.4824
1.4695
1.3664
1.4051
1.534
1.4309
1.3406
1.418
1.5211
1.5211
1.418
1.3664
1.4051
1.4566
1.4051
1.4566
1.4437
1.3922
1.2633
1.4309
1.5727
1.534
1.4437
1.3535
1.3277
1.3148
1.2504
1.2375
1.3793
1.5984
1.5211
1.4824
1.6113
1.5598
1.4437
1.3664
1.1859
1.1473
1.2375
1.2762
1.4437
1.5855
1.5984
1.534
1.4051
1.3793
1.3148
1.1859
1.1602
1.1215
0.941
0.8379
0.9926
1.4309
1.7789
1.7918
1.882
1.766
1.6629
1.4953
1.3664
1.418
1.5211
1.6242
1.7016
1.5984
1.4566
1.3793
1.418
1.5211
1.534
1.534
1.5727
1.534
1.4824
1.5598
1.6242
1.5855
1.6371
1.5727
1.5598
1.534
1.4824
1.3148
1.2375
1.3922
1.4953
1.6113
1.6629
1.4824
1.3664
1.3277
1.4051
1.4309
1.4309
1.4051
1.4437
1.4953
1.4566
1.3535
1.3277
1.5082
1.4953
1.4695
1.4953
1.4953
1.4824
1.3922
1.2891
1.1859
1.1344
1.173
1.3148
1.5984
1.6371
1.5855
1.5211
1.2891
1.3277
1.4309
1.2891
1.1473
1.3664
1.4953
1.4309
1.6113
1.65
1.3922
1.2504
1.3664
1.4309
1.3277
1.1988
1.173
1.2504
1.3406
1.4437
1.5855
1.7016
1.7145
1.534
1.4309
1.1859
1.0441
1.1215
1.2246
1.4953
1.5727
1.5211
1.534
1.5598
1.5598
1.5855
1.5727
1.5855
1.5727
1.6242
1.5984
1.5211
1.5211
1.4953
1.4953
1.5598
1.4953
1.5598
1.5469
1.534
1.5984
1.5855
1.4824
1.4437
1.4437
1.4309
1.4051
1.4437
1.534
1.4695
1.4051
1.4824
1.5727
1.6113
1.534
1.3664
1.4051
1.4695
1.4566
1.4309
1.3406
1.3664
1.3922
1.3793
1.2633
1.2762
1.2504
1.2633
1.2633
1.3793
1.4309
1.4309
1.4824
1.4695
1.3406
1.302
1.3148
1.2633
1.2375
1.2246
1.3664
1.418
1.3535
1.3148
1.2375
1.2375
1.2633
1.3922
1.4566
1.65
1.7531
1.4953
1.3406
1.3535
1.3664
1.3793
1.5469
1.6242
1.534
1.4309
1.4824
1.4309
1.4566
1.4695
1.4437
1.4695
1.3922
1.3535
1.5211
1.6113
1.6887
1.6629
1.6887
1.65
1.4953
1.4824
1.4695
1.4824
1.5082
1.4437
1.3535
1.2891
1.3793
1.5211
1.4953
1.4953
1.4566
1.4824
1.4953
1.5727
1.5855
1.4566
1.4566
1.4309
1.3277
1.2891
1.4566
1.5855
1.5211
1.5211
1.5469
1.4695
1.4051
1.3793
1.4695
1.4953
1.3277
1.1602
1.0313
0.9152
0.9281
1.2246
1.5469
1.6887
1.7273
1.65
1.5984
1.3793
1.0699
0.941
1.0441
1.4051
1.5598
1.7918
1.7402
1.5984
1.4566
1.4695
1.5598
1.5469
1.5727
1.5855
1.5984
1.5082
1.4437
1.3406
1.3535
1.4437
1.4695
1.2891
1.0699
1.1988
1.2117
1.2762
1.2762
1.2117
1.2762
1.4051
1.766
1.8047
1.6113
1.5211
1.6629
1.5598
1.4824
1.4437
1.2891
1.1988
1.2633
1.3793
1.4437
1.534
1.5082
1.4566
1.4953
1.5855
1.7016
1.65
1.5082
1.4953
1.534
1.4695
1.4309
1.418
1.3148
1.302
1.3277
1.2633
1.173
1.2375
1.3793
1.4309
1.5727
1.766
1.6629
1.6113
1.4309
1.4051
1.3406
1.3664
1.3535
1.3148
1.4437
1.4695
1.5469
1.7145
1.7402
1.6371
1.6242
1.5984
1.5082
1.4566
1.3922
1.3406
1.3406
1.4695
1.5082
1.5211
1.3793
1.3277
1.3277
1.2762
1.3148
1.418
1.4437
1.4695
1.4309
1.4695
1.4695
1.4437
1.4953
1.3277
1.1859
1.2762
1.3793
1.4051
1.4309
1.6371
1.6113
1.5598
1.418
1.3922
1.4437
1.418
1.3922
1.4309
1.4437
1.4566
1.5211
1.5211
1.418
1.3664
1.3148
1.3277
1.5082
1.5211
1.5598
1.4051
1.418
1.5211
1.4309
1.4566
1.534
1.3148
1.2504
1.3148
1.3535
1.3664
1.5598
1.6758
1.4437
1.2891
1.4824
1.4437
1.4051
1.5727
1.6242
1.6629
1.6113
1.6371
1.5469
1.4437
1.4695
1.534
1.5984
1.6629
1.5984
1.4309
1.2762
1.302
1.3148
1.4309
1.5082
1.4824
1.4309
1.4309
1.3664
1.418
1.418
1.4566
1.3664
1.4051
1.4953
1.4309
1.4051
1.5469
1.5469
1.5082
1.5598
1.534
1.4824
1.4695
1.4824
1.302
1.1859
1.2633
1.2375
1.3148
1.4695
1.65
1.6629
1.5469
1.5598
1.5211
1.2762
1.2762
1.3922
1.4695
1.3535
1.302
1.2891
1.4566
1.6371
1.6242
1.5727
1.3535
1.302
1.3148
1.3406
1.4437
1.5598
1.6113
1.6113
1.6113
1.534
1.534
1.5727
1.5855
1.65
1.5598
1.5211
1.4695
1.3535
1.3922
1.4051
1.2762
1.2246
1.173
1.2117
1.3406
1.5598
1.6629
1.6113
1.5727
1.6113
1.5469
1.4566
1.418
1.3148
1.3406
1.4309
1.4437
1.418
1.3793
1.3148
1.4824
1.4437
1.4437
1.5469
1.5469
1.5211
1.4437
1.3535
1.3277
1.2504
1.1602
1.0957
1.173
1.173
1.3406
1.7789
1.7918
1.5855
1.534
1.5469
1.5469
1.6371
1.5855
1.4824
1.4051
1.3535
1.2504
1.2375
1.302
1.4309
1.5469
1.6371
1.5727
1.5211
1.5211
1.4566
1.3148
1.4051
1.534
1.6113
1.6371
1.5727
1.4695
1.3535
1.4051
1.4309
1.418
1.5598
1.65
1.6371
1.4695
1.4051
1.3148
1.4695
1.5469
1.5598
1.5082
1.4953
1.4695
1.4566
1.4309
1.4437
1.4566
1.4566
1.3664
1.3406
1.3922
1.5211
1.5984
1.7016
1.8176
1.6629
1.6629
1.5984
1.4953
1.3793
1.2891
1.3922
1.3535
1.2762
1.3148
1.4437
1.4309
1.3148
1.3277
1.3406
1.3922
1.3406
1.2633
1.3148
1.3793
1.2246
0.9281
0.9797
1.4824
1.6242
1.7145
1.7531
1.5727
1.3406
1.3406
1.3793
1.1602
1.2762
1.3922
1.3148
1.4051
1.6113
1.8691
1.882
1.6113
1.4695
1.3277
1.3664
1.3277
1.302
1.2504
1.3793
1.3922
1.3406
1.5469
1.5855
1.4437
1.5855
1.7145
1.7016
1.6758
1.6113
1.7402
1.65
1.4695
1.4695
1.5082
1.534
1.5727
1.4695
1.4566
1.4437
1.5211
1.534
1.2891
1.2891
1.2891
1.1859
1.2117
1.3406
1.4566
1.418
1.5469
1.6371
1.6629
1.6371
1.5082
1.534
1.6371
1.7273
1.7145
1.534
1.4051
1.5211
1.4566
1.3793
1.2504
1.2891
1.3922
1.4309
1.3922
1.4437
1.4695
1.5598
1.5855
1.5984
1.534
1.5211
1.4051
1.2246
0.9668
0.8895
1.1473
1.3922
1.3664
1.418
1.5727
1.6113
1.6371
1.6371
1.6113
1.4309
1.2246
1.1086
1.0055
0.9539
1.0055
1.4824
1.7145
1.6887
1.7273
1.882
1.8691
1.7531
1.5727
1.302
1.1473
1.3664
1.5855
1.65
1.7789
1.6629
1.534
1.5082
1.3922
1.302
1.4437
1.5211
1.3922
1.418
1.4437
1.3148
1.3535
1.4953
1.4566
1.4695
1.4695
1.4437
1.5727
1.7531
1.6113
1.4566
1.4309
1.3922
1.4437
1.5855
1.4953
1.418
1.5082
1.4566
1.4695
1.5082
1.5082
1.4953
1.4695
1.5211
1.5984
1.5855
1.5984
1.4953
1.4437
1.4695
1.4695
1.3535
1.3148
1.4824
1.534
1.534
1.5727
1.5727
1.5469
1.5469
1.5727
1.534
1.4566
1.4437
1.4953
1.5082
1.4953
1.3922
1.2633
1.057
0.9926
0.9281
0.9797
1.1473
1.5082
1.766
1.5211
1.2891
1.3277
1.5984
1.7531
1.7918
1.5984
1.418
1.3664
1.418
1.4953
1.5855
1.6371
1.7016
1.6371
1.5082
1.4437
1.3535
1.302
1.3664
1.3922
1.5082
1.5598
1.4695
1.3535
1.3922
1.3793
1.2375
1.2375
1.4566
1.5984
1.6242
1.6113
1.6629
1.7145
1.7402
1.7273
1.6887
1.5855
1.534
1.5855
1.4953
1.5469
1.3148
1.3148
1.418
1.418
1.418
1.4051
1.4824
1.5082
1.4437
1.3535
1.5855
1.5984
1.5469
1.5727
1.4695
1.3535
1.418
1.5598
1.5855
1.5727
1.4824
1.4695
1.5082
1.4051
1.3277
1.3793
1.4437
1.3922
1.418
1.5211
1.6371
1.5727
1.3922
1.3535
1.418
1.2762
1.2633
1.5211
1.4824
1.4695
1.5855
1.5855
1.4695
1.302
1.1215
1.0055
0.9281
1.0313
1.2762
1.5082
1.5727
1.4695
1.4566
1.3922
1.5469
1.8305
1.8176
1.5469
1.4953
1.5598
1.534
1.5211
1.6242
1.65
1.5855
1.4695
1.5211
1.5855
1.534
1.4566
1.3664
1.3922
1.4437
1.4309
1.5211
1.5469
1.4953
1.4566
1.4309
1.4953
1.5211
1.5211
1.5469
1.5598
1.4953
1.5598
1.5855
1.534
1.5469
1.534
1.4695
1.5598
1.6242
1.5727
1.5211
1.4953
1.4309
1.4309
1.4695
1.5469
1.5082
1.534
1.5984
1.4566
1.3406
1.3277
1.4309
1.4953
1.4309
1.4695
1.4695
1.3406
1.4566
1.5598
1.7016
1.6113
1.5727
1.5984
1.5727
1.4309
1.0828
0.8895
0.825
0.8766
1.2504
1.7273
1.9336
2.0238
1.882
1.5984
1.4695
1.3922
1.4566
1.5211
1.5984
1.4695
1.2375
1.173
1.1859
1.1086
1.2762
1.4437
1.5082
1.5984
1.7402
1.7273
1.5082
1.302
1.2117
1.2633
1.3148
1.418
1.6242
1.7273
1.7273
1.5984
1.5855
1.5469
1.5469
1.5469
1.5469
1.5855
1.6113
1.5469
1.5598
1.534
1.5469
1.5082
1.4566
1.4566
1.4437
1.4824
1.534
1.534
1.5469
1.4566
1.418
1.4566
1.5469
1.6113
1.6758
1.6371
1.4051
1.173
1.2375
1.4051
1.534
1.534
1.65
1.4953
1.418
1.4566
1.4953
1.4051
1.3406
1.3922
1.4566
1.4566
1.5469
1.6629
1.6758
1.5082
1.4695
1.5211
1.418
1.4437
1.5082
1.5469
1.5727
1.4953
1.3922
1.4566
1.4437
1.302
1.2762
1.2375
1.2762
1.3406
1.3535
1.4437
1.5082
1.5082
1.5727
1.4309
1.4309
1.4437
1.4566
1.2504
0.8379
1.0055
1.3535
1.5082
1.4695
1.7918
1.8047
1.5469
1.5984
1.5727
1.4953
1.4824
1.5984
1.7145
1.6887
1.5469
1.4953
1.4566
1.4309
1.2504
1.3148
1.5082
1.5598
1.4695
1.5211
1.6242
1.5984
1.534
1.5598
1.5727
1.4824
1.5984
1.7145
1.6242
1.6371
1.65
1.5598
1.5727
1.5727
1.5598
1.5469
1.5469
1.5727
1.5984
1.5855
1.65
1.4953
1.3922
1.302
1.2504
1.3148
1.4437
1.5855
1.6242
1.5598
1.534
1.534
1.3664
1.302
1.2762
1.3406
1.3406
1.2504
1.3535
1.4824
1.3922
1.2504
1.2117
1.3535
1.5082
1.5984
1.6113
1.534
1.4051
1.3406
1.3922
1.3793
1.302
1.3277
1.4437
1.4437
1.302
1.3922
1.5598
1.7273
1.7402
1.8047
1.8047
1.8176
1.7402
1.65
1.5469
1.5211
1.5855
1.5727
1.6113
1.7145
1.7016
1.6758
1.5598
1.418
1.3664
1.1988
1.1215
1.2504
1.3277
1.4953
1.5469
1.5082
1.3535
1.2246
1.2117
1.2504
1.3277
1.4695
1.6887
1.7531
1.7273
1.5855
1.4953
1.5211
1.6242
1.5598
1.4051
1.3664
1.5727
1.6113
1.4953
1.4437
1.4437
1.4309
1.3793
1.3406
1.2246
1.2633
1.2891
1.4309
1.6371
1.6371
1.5855
1.4953
1.3922
1.5211
1.5469
1.4695
1.5598
1.6758
1.5984
1.3406
1.3535
1.4824
1.5855
1.3406
1.3922
1.6371
1.6629
1.6242
1.7016
1.7918
1.6242
1.5082
1.5855
1.65
1.4695
1.3793
1.4309
1.3922
1.4437
1.4566
1.4953
1.5211
1.5082
1.4051
1.2891
1.3406
1.4824
1.5211
1.3664
1.3406
1.3664
1.3535
1.4695
1.6113
1.7918
1.6758
1.5984
1.5984
1.5211
1.5469
1.4437
1.3922
1.3664
1.4437
1.4051
1.4695
1.5727
1.4051
1.2762
1.1988
1.2375
1.3535
1.3793
1.3148
1.4051
1.6242
1.4824
1.3664
1.4051
1.3406
1.5855
1.8949
1.8047
1.7016
1.7273
1.7016
1.65
1.5984
1.6371
1.6242
1.418
1.2246
1.2246
1.3148
1.3793
1.5082
1.7273
1.7016
1.65
1.534
1.4566
1.5211
1.5727
1.5727
1.5727
1.6242
1.5855
1.534
1.5082
1.4566
1.3922
1.3793
1.302
1.3406
1.4309
1.6758
1.766
1.5598
1.4824
1.302
1.302
1.3148
1.3148
1.2891
1.4566
1.534
1.6242
1.8047
1.766
1.6758
1.5469
1.5984
1.4953
1.4695
1.3535
1.2246
1.2504
1.418
1.4824
1.5469
1.6113
1.6242
1.6242
1.65
1.65
1.5469
1.5598
1.6371
1.6242
1.5082
1.4695
1.418
1.4824
1.4051
1.4051
1.3406
1.3277
1.3535
1.2246
1.057
0.941
1.1215
1.2375
1.534
1.8691
1.9207
1.8691
1.7016
1.5082
1.418
1.3793
1.5211
1.6371
1.5727
1.5082
1.534
1.534
1.5469
1.5211
1.5984
1.6242
1.6758
1.6758
1.5211
1.4051
1.2762
1.1859
1.2633
1.3148
1.418
1.534
1.5469
1.6242
1.6629
1.7402
1.7273
1.5469
1.5211
1.4824
1.4566
1.4953
1.5469
1.4953
1.3793
1.5082
1.5469
1.5469
1.4953
1.4824
1.4437
1.4953
1.5211
1.6371
1.7145
1.6371
1.6887
1.7531
1.5984
1.5211
1.3793
1.4051
1.3664
1.302
1.3406
1.3535
1.5469
1.6371
1.6887
1.6113
1.5211
1.5855
1.5984
1.5855
1.4953
1.418
1.4695
1.5469
1.3922
1.3922
1.5082
1.4824
1.4824
1.5598
1.4953
1.4824
1.4309
1.534
1.5855
1.4824
1.3148
1.2117
1.2117
1.302
1.3148
1.5211
1.65
1.5984
1.4437
1.5598
1.6887
1.6113
1.3922
1.3277
1.1602
1.1344
1.3922
1.5469
1.65
1.7145
1.7145
1.65
1.5984
1.5211
1.4309
1.4824
1.5855
1.5855
1.5469
1.534
1.5211
1.4695
1.5469
1.6242
1.6758
1.5211
1.418
1.5211
1.5727
1.534
1.4824
1.4437
1.4953
1.6887
1.7016
1.534
1.5727
1.6113
1.4695
1.4309
1.4309
1.3922
1.418
1.4695
1.4437
1.4051
1.5727
1.6758
1.5598
1.4824
1.4566
1.4953
1.5082
1.4824
1.534
1.4953
1.3406
1.2762
1.3793
1.534
1.6242
1.6371
1.6242
1.65
1.5855
1.5598
1.5727
1.5984
1.6242
1.6629
1.6758
1.5855
1.4824
1.4824
1.4051
1.3922
1.4953
1.4953
1.3664
1.2246
1.173
0.9797
0.9281
1.1473
1.65
1.882
1.7145
1.8434
1.9207
1.6371
1.4824
1.3664
1.2246
1.302
1.3535
1.1859
1.2117
1.4309
1.65
1.7402
1.6113
1.5469
1.6371
1.6758
1.7016
1.8305
1.8305
1.7273
1.7145
1.6113
1.3277
1.418
1.534
1.4309
1.2891
1.3664
1.5598
1.5211
1.4566
1.4051
1.4566
1.5984
1.7016
1.5855
1.5855
1.5598
1.534
1.5469
1.5469
1.5727
1.5469
1.4824
1.5469
1.6113
1.6887
1.6371
1.6887
1.7402
1.65
1.4566
1.4824
1.5082
1.4824
1.418
1.3277
1.3793
1.4824
1.6242
1.6629
1.4695
1.3277
1.2633
1.2762
1.302
1.2117
1.5082
1.7273
1.6758
1.6113
1.5082
1.2246
1.0828
0.9539
1.0184
1.3664
1.6113
1.9594
1.9594
1.7016
1.4566
1.4437
1.5984
1.7402
1.6629
1.7145
1.7273
1.6242
1.6887
1.4953
1.2117
1.3148
1.5211
1.5211
1.4309
1.4695
1.5598
1.6887
1.6887
1.5855
1.5598
1.5984
1.6629
1.5855
1.418
1.3148
1.3277
1.3793
1.3148
1.418
1.4695
1.5469
1.6629
1.766
1.6242
1.6371
1.5727
1.4695
1.4695
1.6371
1.6113
1.6113
1.6887
1.6629
1.6242
1.5469
1.4566
1.5082
1.6371
1.6629
1.6629
1.4309
1.2117
1.0441
1.0313
1.2246
1.4309
1.7145
1.9852
1.8305
1.418
1.2375
1.173
1.1988
1.4695
1.7145
1.8434
1.8047
1.6371
1.5082
1.418
1.3148
1.3793
1.4437
1.5469
1.6371
1.6113
1.3793
1.3922
1.6758
1.7145
1.65
1.7145
1.7273
1.6242
1.534
1.534
1.418
1.2891
1.4051
1.3922
1.3148
1.2246
1.3922
1.5855
1.8047
1.8176
1.7273
1.7789
1.7918
1.6629
1.6113
1.5598
1.4695
1.5598
1.6758
1.6242
1.6629
1.5727
1.5855
1.5082
1.4695
1.418
1.3406
1.418
1.534
1.5082
1.418
1.3922
1.4824
1.5598
1.5082
1.5984
1.7402
1.7273
1.5598
1.4566
1.4695
1.3793
1.4051
1.4437
1.4953
1.5727
1.6113
1.534
1.5211
1.5211
1.534
1.4566
1.4051
1.2891
1.1859
1.2246
1.4437
1.5984
1.6629
1.5984
1.534
1.8305
1.9465
1.7789
1.4695
1.3406
1.5082
1.5855
1.4695
1.2633
1.1859
1.2246
1.4309
1.5211
1.7016
1.7273
1.7016
1.6887
1.7145
1.8305
1.7273
1.4437
1.3664
1.534
1.6371
1.5211
1.4566
1.6371
1.7273
1.5727
1.534
1.418
1.4824
1.5469
1.4953
1.3148
1.3277
1.3922
1.5469
1.5598
1.5082
1.4695
1.3277
1.3148
1.4695
1.4566
1.418
1.6242
1.7273
1.5469
1.4695
1.5727
1.5082
1.4824
1.418
1.5855
1.65
1.5855
1.4695
1.5598
1.65
1.5469
1.4824
1.534
1.5211
1.4953
1.5211
1.6371
1.6242
1.5469
1.3535
1.1473
0.9023
0.7734
1.1602
1.6371
1.8691
1.766
1.766
1.7016
1.5598
1.4695
1.4695
1.5469
1.5855
1.766
1.7273
1.5855
1.534
1.6242
1.6242
1.5984
1.5727
1.5211
1.4566
1.5211
1.6242
1.5469
1.534
1.5984
1.5984
1.4566
1.2633
1.3277
1.2375
1.3406
1.534
1.5598
1.5855
1.5598
1.5598
1.6242
1.6242
1.5211
1.4824
1.4824
1.6371
1.6242
1.5984
1.6371
1.5211
1.5727
1.6371
1.5727
1.5855
1.5727
1.3793
1.4051
1.4695
1.2891
1.2246
1.3922
1.5984
1.7016
1.65
1.6113
1.5082
1.4824
1.4566
1.6242
1.6242
1.534
1.4437
1.3922
1.4566
1.5211
1.7402
1.6629
1.534
1.5211
1.534
1.4824
1.3148
0.8766
0.6187
0.6316
0.8121
1.3277
1.882
2.1141
1.882
1.766
1.8176
1.8563
1.5984
1.5082
1.5082
1.4953
1.4953
1.65
1.5598
1.5082
1.65
1.7402
1.6887
1.7016
1.65
1.6113
1.5082
1.4437
1.4437
1.4824
1.3793
1.302
1.3148
1.4051
1.7273
1.7273
1.5598
1.4695
1.5598
1.6242
1.6113
1.5727
1.5727
1.5984
1.4824
1.3664
1.3406
1.4695
1.5855
1.5211
1.2504
1.2762
1.5855
1.5984
1.5855
1.6758
1.7789
1.766
1.5469
1.5211
1.5855
1.5598
1.3922
1.4309
1.534
1.6371
1.5598
1.3922
1.3793
1.5082
1.4824
1.5598
1.3664
1.3277
1.173
1.418
1.7145
1.7531
1.7016
1.4824
1.2246
1.0957
1.3406
1.6629
1.8563
1.8563
1.5727
1.3793
1.4695
1.5727
1.6887
1.4309
1.0828
0.9797
1.4309
1.6758
1.7918
1.8305
1.9207
1.8949
1.7531
1.6242
1.5211
1.4051
1.4051
1.2633
1.2117
1.3148
1.4437
1.5727
1.766
1.9207
1.766
1.7016
1.6629
1.5727
1.5082
1.4051
1.3277
1.4437
1.5211
1.5211
1.65
1.7531
1.65
1.5984
1.6629
1.6887
1.7016
1.7016
1.6242
1.5211
1.418
1.3535
1.3922
1.4824
1.3793
1.3793
1.3793
1.302
1.2762
1.2891
1.3406
1.4953
1.6887
1.6758
1.5984
1.4309
1.3535
1.2375
1.0699
1.1215
1.3793
1.5855
1.5469
1.3793
1.3922
1.4566
1.418
1.5082
1.7789
2.0496
2.0109
1.5469
1.4695
1.5211
1.5469
1.6371
1.5727
1.6629
1.7918
1.7016
1.6242
1.5855
1.7016
1.5727
1.3664
1.418
1.6371
1.6371
1.5469
1.418
1.4824
1.7402
1.7918
1.65
1.5082
1.2633
1.3148
1.6113
1.6887
1.7145
1.882
1.9465
1.7273
1.6113
1.4953
1.3148
1.3664
1.5211
1.6113
1.4824
1.4695
1.4566
1.5082
1.5727
1.4953
1.4953
1.534
1.4309
1.2762
1.3406
1.534
1.6113
1.4695
1.3793
1.3793
1.3922
1.4695
1.418
1.3535
1.4566
1.5855
1.6242
1.5855
1.4953
1.5082
1.4437
1.4437
1.4051
1.4309
1.534
1.65
1.6113
1.4953
1.3922
1.4695
1.5727
1.5984
1.6113
1.8305
1.7531
1.7016
1.7016
1.5984
1.4051
1.3664
1.3406
1.302
1.302
1.2246
1.2633
1.2762
1.4566
1.6242
1.5727
1.4309
1.4695
1.6758
1.6113
1.5727
1.7402
1.5984
1.4824
1.534
1.5727
1.7016
1.7789
1.7918
1.7531
1.7531
1.766
1.7273
1.5984
1.534
1.5984
1.4824
1.3922
1.3793
1.4437
1.5984
1.6371
1.5211
1.4566
1.3793
1.3148
1.3922
1.4051
1.302
1.4437
1.6113
1.5469
1.65
1.5984
1.6887
1.6629
1.534
1.4437
1.5855
1.6371
1.5855
1.5984
1.5727
1.5598
1.4437
1.2117
1.1602
1.173
1.4437
1.6629
1.8563
1.8434
1.7402
1.6242
1.534
1.5598
1.5727
1.534
1.5211
1.4309
1.4953
1.5082
1.5727
1.6113
1.6113
1.6113
1.5082
1.4566
1.4824
1.5211
1.5855
1.5469
1.5727
1.6371
1.5984
1.5469
1.5984
1.5855
1.5598
1.5727
1.5082
1.4566
1.5082
1.6113
1.5082
1.3406
1.302
1.5984
1.6371
1.5727
1.7145
1.5855
1.4824
1.5211
1.6242
1.766
1.6887
1.534
1.3535
1.3922
1.4953
1.4566
1.4953
1.4695
1.5082
1.6242
1.7273
1.7273
1.5082
1.3922
1.3922
1.3406
1.3793
1.4566
1.534
1.6371
1.7402
1.7016
1.534
1.3277
1.1344
1.0184
0.8379
0.7734
1.0313
1.4953
1.7016
1.7402
1.8305
1.766
1.65
1.6887
1.6371
1.5984
1.7918
1.8434
1.7531
1.7145
1.7402
1.6371
1.5082
1.534
1.6371
1.7016
1.6887
1.65
1.5855
1.6629
1.6371
1.5598
1.5984
1.5984
1.5469
1.4824
1.4695
1.5469
1.6113
1.6371
1.5211
1.4566
1.4953
1.4051
1.302
1.3406
1.4566
1.4309
1.4051
1.5727
1.6758
1.6887
1.6371
1.5082
1.5082
1.6629
1.65
1.6629
1.7531
1.8434
1.8047
1.5082
1.3148
1.2762
1.2246
1.3664
1.4566
1.534
1.5855
1.5469
1.4953
1.4953
1.5082
1.534
1.5598
1.5211
1.3406
1.302
1.2633
1.2375
1.3277
1.6113
1.65
1.6242
1.5727
1.534
1.4437
1.3922
1.3664
1.4051
1.4051
1.4695
1.4437
1.2891
1.2891
1.4695
