0.7734
0.7863
0.7992
0.8121
0.8121
0.7992
0.7863
0.7863
0.7863
0.7992
0.8121
0.8121
0.8121
0.7992
0.7863
0.7863
0.7863
0.7992
0.8121
0.825
0.825
0.8121
0.8121
0.7992
0.7992
0.7992
0.8121
0.8121
0.825
0.8121
0.8121
0.7992
0.7992
0.7992
0.8121
0.825
0.825
0.825
0.8121
0.8121
0.7992
0.7992
0.8121
0.8121
0.825
0.825
0.8121
0.8121
0.7992
0.7992
0.7992
0.8121
0.825
0.825
0.825
0.825
0.8121
0.7992
0.7992
0.8121
0.825
0.8379
0.8379
0.825
0.825
0.8121
0.8121
0.825
0.8379
0.8508
0.8637
0.8637
0.8508
0.8379
0.8379
0.8508
0.8637
0.8766
0.8766
0.8895
0.8766
0.8766
0.8637
0.8637
0.8766
0.8895
0.8895
0.9023
0.9023
0.8895
0.8766
0.8766
0.8766
0.8766
0.8895
0.8895
0.8895
0.8766
0.8508
0.8508
0.8379
0.8508
0.8508
0.8637
0.8508
0.8508
0.825
0.825
0.825
0.8379
0.8379
0.8508
0.8508
0.8508
0.825
0.825
0.8121
0.825
0.825
0.8508
0.8508
0.8379
0.8379
0.825
0.825
0.825
0.8379
0.8508
0.8637
0.8508
0.8508
0.8379
0.8379
0.8379
0.8379
0.8508
0.8508
0.8637
0.8637
0.8508
0.8379
0.8379
0.825
0.8508
0.8637
0.8766
0.8766
0.8766
0.8766
0.8895
0.9152
0.9539
1.0055
1.0699
1.1215
1.173
1.2117
1.2504
1.2633
1.2633
1.2504
1.2246
1.173
1.1215
1.057
0.9926
0.9539
0.9152
0.9023
0.8895
0.8895
0.8895
0.8766
0.8637
0.8508
0.8637
0.8766
0.8895
0.9023
0.9023
0.9023
0.9023
0.8766
0.8766
0.8895
0.9023
0.9023
0.9152
0.9152
0.9152
0.9023
0.8895
0.9023
0.9023
0.9152
0.9281
0.941
0.9281
0.9281
0.9152
0.9152
0.9281
0.941
0.9539
0.9539
0.9539
0.941
0.941
0.941
0.941
0.9539
0.9668
0.9797
0.9797
0.9668
0.9668
0.9539
0.9539
0.9668
0.9797
0.9926
0.9926
0.9926
0.9797
0.9797
0.9797
0.9926
1.0055
1.0184
1.0313
1.0313
1.0184
1.0184
1.0055
1.0055
1.0184
1.0441
1.057
1.057
1.057
1.0441
1.0441
1.0441
1.0441
1.0699
1.0828
1.0957
1.0957
1.0957
1.0828
1.0828
1.0957
1.0957
1.1215
1.1344
1.1344
1.1215
1.1086
1.1086
1.1215
1.1215
1.1344
1.1473
1.1473
1.1473
1.1344
1.1344
1.1215
1.1344
1.1344
1.1473
1.1473
1.1473
1.1215
1.1086
1.0957
1.0957
1.0828
1.0957
1.0957
1.0957
1.0828
1.057
1.0441
1.0313
1.0313
1.0313
1.0441
1.0313
1.0313
1.0055
0.9926
0.9926
0.9926
0.9926
1.0055
1.0055
1.0055
0.9926
0.9797
0.9668
0.9668
0.9797
0.9797
0.9926
0.9926
0.9926
0.9797
0.9668
0.9668
0.9668
0.9797
0.9926
0.9926
0.9797
0.9797
0.9668
0.9797
0.9668
0.9797
0.9926
0.9926
1.0055
0.9926
0.9797
0.9797
0.9668
0.9926
1.0055
1.0184
1.0055
1.0055
0.9926
0.9926
0.9926
1.0055
1.0055
1.0313
1.0313
1.0184
1.0184
1.0055
0.9926
0.9926
1.0055
1.0184
1.0313
1.0313
1.0313
1.0184
1.0055
1.0055
1.0184
1.0313
1.0313
1.0313
1.0313
1.0313
1.0184
1.0055
1.0055
1.0313
1.0313
1.0441
1.0313
1.0313
1.0313
1.0184
1.0184
1.0313
1.0313
1.0441
1.0441
1.0441
1.0313
1.0184
1.0184
1.0313
1.0313
1.0441
1.0441
1.0441
1.0313
1.0184
1.0184
1.0184
1.0313
1.0313
1.0441
1.0441
1.0313
1.0184
1.0184
1.0313
1.0313
1.0441
1.057
1.057
1.0441
1.0441
1.0313
1.0313
1.0441
1.0441
1.0441
1.057
1.057
1.0441
1.0313
1.0313
1.0313
1.0441
1.057
1.0699
1.0699
1.0699
1.0441
1.0441
1.057
1.057
1.0699
1.0828
1.0828
1.0828
1.0828
1.0699
1.0699
1.0828
1.0957
1.1086
1.1086
1.1215
1.1086
1.0957
1.0957
1.0957
1.1086
1.1215
1.1344
1.1344
1.1344
1.1086
1.1086
1.0957
1.0957
1.1086
1.1086
1.1086
1.0957
1.0957
1.0828
1.0699
1.0699
1.0699
1.0828
1.0957
1.0828
1.0699
1.057
1.057
1.057
1.057
1.0699
1.0828
1.0828
1.0699
1.057
1.057
1.0441
1.0441
1.0699
1.0699
1.0699
1.0699
1.057
1.0441
1.0441
1.0441
1.057
1.057
1.0699
1.0699
1.0699
1.057
1.0441
1.057
1.057
1.057
1.0828
1.0828
1.0828
1.0699
1.057
1.057
1.057
1.0699
1.0828
1.0957
1.1086
1.1086
1.1215
1.1473
1.1859
1.2504
1.3148
1.3793
1.4437
1.4824
1.5211
1.5211
1.4953
1.4695
1.4309
1.3922
1.3277
1.2762
1.2117
1.1473
1.1086
1.0957
1.0828
1.0957
1.0957
1.0957
1.0828
1.0828
1.0699
1.0699
1.0828
1.0957
1.1086
1.1215
1.1086
1.1086
1.0957
1.0957
1.1086
1.1086
1.1215
1.1344
1.1344
1.1215
1.1215
1.1086
1.1086
1.1215
1.1215
1.1344
1.1344
1.1344
1.1215
1.1086
1.1086
1.1215
1.1473
1.1473
1.1602
1.1473
1.1344
1.1344
1.1215
1.1344
1.1473
1.1602
1.1602
1.1602
1.1602
1.1473
1.1473
1.1473
1.1602
1.173
1.1859
1.1859
1.1859
1.173
1.1602
1.1602
1.1859
1.1859
1.1988
1.1988
1.2117
1.1988
1.1988
1.1988
1.1988
1.2117
1.2246
1.2375
1.2504
1.2375
1.2246
1.2375
1.2246
1.2504
1.2504
1.2762
1.2762
1.2762
1.2633
1.2633
1.2633
1.2633
1.2762
1.302
1.302
1.302
1.302
1.2891
1.2891
1.2891
1.302
1.3148
1.3277
1.3277
1.302
1.302
1.2891
1.2891
1.2891
1.302
1.302
1.302
1.2891
1.2762
1.2633
1.2504
1.2504
1.2375
1.2504
1.2504
1.2375
1.2246
1.2117
1.1859
1.1859
1.1859
1.1859
1.1859
1.1859
1.173
1.1602
1.1344
1.1344
1.1344
1.1473
1.1473
1.1473
1.1473
1.1473
1.1215
1.1215
1.1215
1.1215
1.1344
1.1473
1.1344
1.1215
1.1215
1.1086
1.1086
1.1086
1.1215
1.1344
1.1344
1.1215
1.1215
1.1086
1.1086
1.1086
1.1086
1.1215
1.1344
1.1344
1.1215
1.1215
1.1086
1.1215
1.1215
1.1344
1.1344
1.1344
1.1344
1.1215
1.1086
1.1086
1.1215
1.1344
1.1473
1.1473
1.1344
1.1344
1.1215
1.1215
1.1215
1.1344
1.1473
1.1473
1.1473
1.1344
1.1215
1.1086
1.1215
1.1215
1.1473
1.1473
1.1473
1.1344
1.1344
1.1344
1.1215
1.1215
1.1344
1.1473
1.1473
1.1473
1.1344
1.1215
1.1215
1.1215
1.1344
1.1344
1.1473
1.1473
1.1473
1.1344
1.1215
1.1215
1.1344
1.1473
1.1473
1.1473
1.1473
1.1344
1.1215
1.1086
1.1215
1.1344
1.1473
1.1473
1.1473
1.1344
1.1215
1.1215
1.1215
1.1344
1.1344
1.1473
1.1473
1.1344
1.1215
1.1215
1.1215
1.1086
1.1344
1.1344
1.1473
1.1473
1.1344
1.1215
1.1215
1.1215
1.1344
1.1473
1.1473
1.1602
1.1473
1.1473
1.1344
1.1344
1.1473
1.1473
1.1602
1.173
1.173
1.1602
1.1602
1.1602
1.173
1.1859
1.1988
1.1988
1.1859
1.1859
1.1859
1.173
1.1859
1.1859
1.1988
1.2117
1.2117
1.1859
1.173
1.173
1.1602
1.173
1.173
1.173
1.173
1.173
1.1602
1.1344
1.1344
1.1344
1.1344
1.1473
1.1473
1.1473
1.1344
1.1215
1.1086
1.1086
1.1086
1.1344
1.1215
1.1215
1.1215
1.1215
1.1086
1.1086
1.1215
1.1215
1.1215
1.1215
1.1215
1.1215
1.1086
1.0957
1.1086
1.1215
1.1344
1.1344
1.1344
1.1344
1.1086
1.1086
1.1086
1.1086
1.1215
1.1344
1.1344
1.1215
1.1086
1.1086
1.1086
1.1086
1.1344
1.1473
1.173
1.1859
1.1988
1.2246
1.2762
1.3148
1.3793
1.4566
1.5082
1.5598
1.5727
1.5469
1.5211
1.4695
1.4309
1.3922
1.3277
1.2891
1.2375
1.1859
1.1473
1.1215
1.1215
1.1215
1.1344
1.1473
1.1473
1.1344
1.1215
1.1215
1.1215
1.1344
1.1344
1.1602
1.1602
1.1473
1.1344
1.1215
1.1215
1.1344
1.1473
1.1602
1.1602
1.1602
1.1473
1.1344
1.1344
1.1344
1.1473
1.1602
1.1602
1.173
1.1602
1.1473
1.1473
1.1473
1.1602
1.173
1.173
1.173
1.1859
1.173
1.1602
1.1602
1.1602
1.173
1.1859
1.1859
1.1859
1.1859
1.1859
1.173
1.173
1.1859
1.1988
1.2117
1.2117
1.2117
1.1988
1.1859
1.1859
1.1988
1.2117
1.2246
1.2246
1.2375
1.2246
1.2246
1.2117
1.2117
1.2375
1.2504
1.2633
1.2504
1.2633
1.2504
1.2504
1.2504
1.2633
1.2762
1.2891
1.2891
1.2891
1.2891
1.2762
1.2762
1.2891
1.302
1.3148
1.3148
1.3148
1.302
1.302
1.2891
1.2891
1.302
1.3148
1.3277
1.3148
1.3148
1.302
1.2891
1.2891
1.2891
1.2891
1.302
1.2891
1.2891
1.2633
1.2504
1.2375
1.2375
1.2375
1.2246
1.2375
1.2246
1.2117
1.1988
1.173
1.173
1.173
1.173
1.173
1.173
1.173
1.1473
1.1344
1.1344
1.1215
1.1344
1.1473
1.1473
1.1344
1.1215
1.1215
1.1086
1.1086
1.1086
1.1215
1.1344
1.1215
1.1215
1.1086
1.0957
1.0957
1.1086
1.1215
1.1344
1.1215
1.1215
1.1086
1.0957
1.0957
1.0957
1.1086
1.1215
1.1215
1.1086
1.1086
1.0957
1.0957
1.0957
1.1086
1.1215
1.1344
1.1344
1.1215
1.1215
1.1215
1.1086
1.1215
1.1344
1.1344
1.1473
1.1473
1.1344
1.1215
1.1215
1.1086
1.1215
1.1344
1.1473
1.1473
1.1344
1.1215
1.1215
1.1215
1.1215
1.1344
1.1473
1.1344
1.1344
1.1215
1.1086
1.1086
1.1215
1.1215
1.1344
1.1473
1.1344
1.1215
1.1086
1.1086
1.1086
1.1215
1.1344
1.1344
1.1344
1.1215
1.1215
1.1086
1.1086
1.1086
1.1215
1.1215
1.1344
1.1215
1.1086
1.1086
1.0957
1.0957
1.1086
1.1215
1.1344
1.1344
1.1215
1.1086
1.1086
1.1086
1.1086
1.1215
1.1344
1.1344
1.1215
1.1086
1.1086
1.0957
1.1086
1.1215
1.1215
1.1215
1.1215
1.1086
1.1086
1.1086
1.1086
1.1215
1.1215
1.1215
1.1344
1.1215
1.1086
1.0957
1.0957
1.1086
1.1215
1.1215
1.1215
1.1215
1.1086
1.1086
1.1086
1.1086
1.1215
1.1473
1.1473
1.1473
1.1473
1.1344
1.1215
1.1215
1.1344
1.1602
1.1602
1.173
1.1602
1.1473
1.1473
1.1473
1.1602
1.173
1.1859
1.1859
1.1859
1.173
1.1602
1.1602
1.1602
1.1602
1.173
1.173
1.173
1.1602
1.1473
1.1344
1.1344
1.1473
1.1602
1.1473
1.1473
1.1473
1.1344
1.1215
1.1215
1.1086
1.1215
1.1215
1.1215
1.1215
1.1086
1.0957
1.0957
1.0957
1.1086
1.1086
1.1086
1.1215
1.1086
1.0957
1.0828
1.0828
1.0828
1.1086
1.1086
1.1215
1.1086
1.0957
1.0957
1.0957
1.0957
1.1086
1.1086
1.1215
1.1086
1.1086
1.0957
1.0957
1.0828
1.0957
1.1086
1.1086
1.1086
1.1086
1.1086
1.1086
1.1215
1.1473
1.1859
1.2246
1.2762
1.3277
1.3793
1.4309
1.4695
1.5211
1.5469
1.534
1.5211
1.4824
1.4309
1.3664
1.302
1.2504
1.2117
1.173
1.1602
1.1344
1.1215
1.1086
1.0957
1.0957
1.1086
1.1215
1.1215
1.1344
1.1344
1.1215
1.1086
1.1086
1.1086
1.1215
1.1344
1.1344
1.1344
1.1215
1.1215
1.1086
1.1086
1.1215
1.1344
1.1344
1.1473
1.1344
1.1344
1.1215
1.1215
1.1215
1.1344
1.1473
1.1473
1.1602
1.1473
1.1344
1.1344
1.1344
1.1602
1.1602
1.1602
1.1602
1.1602
1.1473
1.1473
1.1473
1.1473
1.1602
1.173
1.173
1.173
1.1602
1.1602
1.1602
1.1602
1.173
1.1859
1.1988
1.1988
1.1988
1.1859
1.1859
1.1859
1.1859
1.2117
1.2246
1.2246
1.2246
1.2117
1.1988
1.2117
1.2246
1.2375
1.2504
1.2633
1.2633
1.2504
1.2375
1.2375
1.2504
1.2633
1.2762
1.2891
1.2891
1.2762
1.2762
1.2633
1.2633
1.2762
1.2891
1.302
1.302
1.302
1.302
1.2762
1.2891
1.2891
1.2891
1.302
1.302
1.302
1.2891
1.2762
1.2633
1.2504
1.2633
1.2633
1.2633
1.2633
1.2504
1.2246
1.1988
1.1859
1.1859
1.1988
1.1988
1.1988
1.1859
1.173
1.1602
1.1344
1.1473
1.1344
1.1473
1.1602
1.1344
1.1344
1.1215
1.1086
1.1086
1.1086
1.1215
1.1215
1.1215
1.1086
1.1086
1.0957
1.0957
1.0957
1.1086
1.1215
1.1215
1.1086
1.1086
1.0957
1.0957
1.0828
1.1086
1.1086
1.1215
1.1215
1.1086
1.0957
1.0957
1.0957
1.0957
1.1086
1.1086
1.1215
1.1215
1.1086
1.1086
1.1086
1.1086
1.1215
1.1344
1.1344
1.1215
1.1215
1.1086
1.1086
1.0957
1.1086
1.1215
1.1344
1.1473
1.1344
1.1215
1.1086
1.1086
1.1086
1.1215
1.1344
1.1344
1.1344
1.1215
1.1086
1.1086
1.1086
1.1086
1.1215
1.1344
1.1215
1.1215
1.1086
1.1086
1.1086
1.1086
1.1215
1.1344
1.1344
1.1344
1.1215
1.1086
1.1086
1.1086
1.1215
1.1215
1.1344
1.1215
1.1215
1.1086
1.1086
1.1086
1.1086
1.1215
1.1344
1.1215
1.1215
1.1086
1.1086
1.0957
1.1086
1.1215
1.1215
1.1344
1.1215
1.1086
1.1086
1.0957
1.1086
1.1215
1.1344
1.1344
1.1344
1.1344
1.1215
1.1215
1.1215
1.1344
1.1473
1.1602
1.1473
1.1602
1.1473
1.1473
1.1473
1.1473
1.173
1.173
1.173
1.173
1.1602
1.1473
1.1473
1.1602
1.173
1.1859
1.1859
1.173
1.173
1.1473
1.1602
1.1473
1.1473
1.1473
1.1602
1.1602
1.1473
1.1344
1.1215
1.1086
1.1086
1.1215
1.1215
1.1344
1.1215
1.1086
1.0957
1.0957
1.0957
1.1086
1.1215
1.1215
1.1215
1.1086
1.0957
1.0957
1.0828
1.0957
1.1086
1.1086
1.1215
1.1086
1.0957
1.0957
1.0957
1.0957
1.0957
1.1086
1.1215
1.1086
1.1086
1.0957
1.0828
1.0828
1.0957
1.1086
1.1215
1.1086
1.1086
1.0957
1.0828
1.0828
1.0957
1.1086
1.1344
1.1602
1.1602
1.1859
1.2117
1.2633
1.3148
1.3793
1.4437
1.4953
1.5211
1.5082
1.4695
1.4309
1.3922
1.3535
1.302
1.2633
1.2117
1.173
1.1344
1.1086
1.0957
1.0957
1.0957
1.1086
1.1215
1.1086
1.1086
1.0957
1.0957
1.0957
1.0957
1.1086
1.1344
1.1215
1.1344
1.1215
1.1086
1.1086
1.1086
1.1215
1.1344
1.1344
1.1344
1.1344
1.1215
1.1215
1.1215
1.1215
1.1344
1.1473
1.1344
1.1344
1.1344
1.1215
1.1215
1.1344
1.1473
1.1602
1.1602
1.1602
1.1473
1.1473
1.1344
1.1344
1.1602
1.1602
1.173
1.1602
1.1602
1.1473
1.1473
1.1602
1.173
1.1859
1.1859
1.1859
1.1859
1.173
1.1602
1.173
1.1859
1.1988
1.2117
1.2117
1.2117
1.1988
1.1988
1.1988
1.2117
1.2117
1.2375
1.2504
1.2504
1.2375
1.2375
1.2375
1.2375
1.2504
1.2633
1.2762
1.2633
1.2762
1.2633
1.2633
1.2633
1.2633
1.2762
1.302
1.302
1.302
1.2891
1.2762
1.2762
1.2762
1.2891
1.302
1.302
1.302
1.302
1.2762
1.2633
1.2633
1.2633
1.2762
1.2762
1.2762
1.2504
1.2375
1.2246
1.2117
1.2117
1.2117
1.2117
1.2117
1.1988
1.1859
1.173
1.1602
1.1473
1.1602
1.1602
1.1602
1.1602
1.1344
1.1215
1.1086
1.1086
1.1086
1.1215
1.1215
1.1344
1.1215
1.1086
1.0957
1.0828
1.0957
1.0957
1.1086
1.1215
1.1215
1.0957
1.0957
1.0828
1.0957
1.0957
1.1086
1.1086
1.1086
1.0957
1.0957
1.0828
1.0828
1.0957
1.0957
1.1086
1.1215
1.1086
1.1086
1.0957
1.0957
1.0957
1.1086
1.1086
1.1215
1.1215
1.1215
1.1086
1.0957
1.0957
1.1086
1.1215
1.1344
1.1215
1.1215
1.1086
1.0957
1.1086
1.1086
1.1215
1.1215
1.1215
1.1344
1.1086
1.1086
1.0957
1.0957
1.1086
1.1215
1.1215
1.1344
1.1215
1.1086
1.1086
1.1086
1.1086
1.1215
1.1344
1.1344
1.1344
1.1086
1.1086
1.0957
1.1086
1.1086
1.1344
1.1344
1.1344
1.1215
1.1086
1.0957
1.1086
1.1086
1.1215
1.1344
1.1215
1.1215
1.1086
1.1086
1.1086
1.1086
1.1215
1.1344
1.1344
1.1344
1.1344
1.1215
1.1215
1.1215
1.1215
1.1473
1.1473
1.1473
1.1473
1.1473
1.1344
1.1344
1.1473
1.1602
1.173
1.1859
1.173
1.173
1.1473
1.1473
1.1602
1.173
1.1859
1.1859
1.1859
1.173
1.1602
1.1473
1.1473
1.1473
1.1602
1.1602
1.1602
1.1473
1.1344
1.1215
1.1215
1.1215
1.1215
1.1344
1.1344
1.1215
1.1086
1.1086
1.0957
1.0957
1.1086
1.1215
1.1215
1.1215
1.1086
1.0957
1.0957
1.0828
1.0957
1.0957
1.1215
1.1215
1.1086
1.0957
1.0828
1.0828
1.0957
1.0957
1.1086
1.1215
1.1086
1.1086
1.0957
1.0828
1.0828
1.0957
1.1086
1.1215
1.1086
1.0957
1.0828
1.0828
1.0828
1.0957
1.1086
1.1215
1.1473
1.1602
1.173
1.1988
1.2375
1.2891
1.3535
1.418
1.4824
1.5082
1.5082
1.4953
1.4566
1.418
1.3793
1.3406
1.2891
1.2375
1.1859
1.1473
1.1215
1.1086
1.0957
1.1086
1.1086
1.1215
1.1215
1.1086
1.0957
1.0828
1.0957
1.1086
1.1086
1.1215
1.1215
1.1215
1.1215
1.1086
1.1086
1.1086
1.1215
1.1344
1.1344
1.1344
1.1215
1.1086
1.1086
1.1086
1.1215
1.1344
1.1473
1.1473
1.1344
1.1215
1.1215
1.1215
1.1344
1.1344
1.1473
1.1473
1.1473
1.1344
1.1344
1.1344
1.1344
1.1473
1.1602
1.1602
1.1602
1.1602
1.1473
1.1473
1.1602
1.1602
1.1859
1.1859
1.1859
1.173
1.173
1.173
1.1602
1.173
1.1859
1.1988
1.1988
1.1988
1.1988
1.1859
1.1859
1.1859
1.2117
1.2246
1.2375
1.2375
1.2246
1.2246
1.2117
1.2246
1.2375
1.2504
1.2504
1.2633
1.2633
1.2633
1.2504
1.2504
1.2633
1.2762
1.2891
1.2891
1.2891
1.2762
1.2633
1.2762
1.2762
1.2891
1.2891
1.302
1.2891
1.2891
1.2633
1.2633
1.2633
1.2633
1.2762
1.2762
1.2633
1.2633
1.2375
1.2246
1.2117
1.2117
1.2117
1.2117
1.2117
1.1988
1.173
1.1602
1.1473
1.1473
1.1473
1.1473
1.1602
1.1473
1.1344
1.1086
1.1086
1.0957
1.1086
1.1086
1.1215
1.1215
1.1086
1.0957
1.0828
1.0828
1.0957
1.1086
1.1086
1.1086
1.1086
1.0957
1.0699
1.0699
1.0828
1.0828
1.0957
1.0957
1.0957
1.0957
1.0828
1.0828
1.0699
1.0828
1.0828
1.1086
1.1086
1.0957
1.0828
1.0828
1.0699
1.0828
1.0957
1.0957
1.1086
1.1086
1.0957
1.0828
1.0828
1.0957
1.0957
1.1086
1.1215
1.1215
1.1086
1.0957
1.0828
1.0828
1.0957
1.1086
1.1086
1.1215
1.1086
1.0957
1.0957
1.0957
1.0957
1.1086
1.1086
1.1086
1.1215
1.1086
1.0957
1.0957
1.0957
1.0957
1.0957
1.1086
1.1086
1.1086
1.0957
1.0957
1.0828
1.0957
1.0957
1.1086
1.1086
1.1086
1.1086
1.0828
1.0828
1.0828
1.0828
1.1086
1.1086
1.0957
1.0957
1.0828
1.0828
1.0828
1.0828
1.0957
1.1086
1.1086
1.1086
1.0957
1.0957
1.0957
1.0957
1.1086
1.1215
1.1344
1.1344
1.1215
1.1086
1.1086
1.1215
1.1344
1.1344
1.1344
1.1473
1.1473
1.1344
1.1344
1.1215
1.1344
1.1473
1.1602
1.1602
1.1473
1.1344
1.1344
1.1215
1.1215
1.1215
1.1344
1.1344
1.1344
1.1215
1.0957
1.0957
1.0828
1.0828
1.0828
1.0957
1.0957
1.0957
1.0828
1.0699
1.057
1.0699
1.0828
1.0828
1.0957
1.0957
1.0828
1.0699
1.057
1.057
1.0699
1.0828
1.0828
1.0828
1.0828
1.0699
1.057
1.057
1.057
1.0828
1.0828
1.0828
1.0828
1.0699
1.057
1.057
1.057
1.0699
1.0828
1.0828
1.0828
1.0699
1.057
1.057
1.0699
1.0828
1.1086
1.1344
1.1473
1.1859
1.2117
1.2504
1.302
1.3793
1.4437
1.4953
1.5211
1.5082
1.4824
1.4309
1.3922
1.3406
1.2762
1.2375
1.1859
1.1473
1.1086
1.0828
1.0699
1.0699
1.0699
1.0828
1.0957
1.0957
1.0957
1.0957
1.0828
1.0828
1.0828
1.0957
1.1086
1.1086
1.1086
1.1086
1.0957
1.0957
1.0957
1.1086
1.1215
1.1215
1.1215
1.1215
1.1086
1.0957
1.0957
1.1086
1.1215
1.1344
1.1344
1.1344
1.1215
1.1215
1.1215
1.1215
1.1344
1.1473
1.1602
1.1602
1.1473
1.1344
1.1344
1.1344
1.1473
1.1602
1.173
1.173
1.173
1.1602
1.1473
1.1473
1.1602
1.1859
1.1859
1.1859
1.1859
1.1859
1.173
1.173
1.1859
1.1988
1.2117
1.2246
1.2246
1.2117
1.2117
1.2117
1.2117
1.2246
1.2375
1.2504
1.2504
1.2504
1.2504
1.2504
1.2504
1.2633
1.2762
1.2891
1.302
1.302
1.2891
1.2891
1.2891
1.2891
1.302
1.3148
1.3277
1.3277
1.3277
1.3148
1.302
1.302
1.3148
1.3148
1.3277
1.3277
1.3406
1.3148
1.302
1.2891
1.2891
1.2891
1.302
1.302
1.2891
1.2762
1.2633
1.2504
1.2375
1.2375
1.2504
1.2504
1.2375
1.2246
1.1988
1.1988
1.173
1.1859
1.1859
1.1859
1.1988
1.1859
1.173
1.1602
1.1473
1.1602
1.1602
1.173
1.173
1.173
1.1602
1.1473
1.1473
1.1473
1.1602
1.1602
1.173
1.173
1.173
1.1602
1.1473
1.1473
1.1602
1.173
1.173
1.1859
1.173
1.173
1.1602
1.1473
1.1602
1.1602
1.173
1.1859
1.1859
1.1859
1.173
1.1602
1.1602
1.173
1.1988
1.1988
1.1988
1.1988
1.1988
1.1859
1.1859
1.1859
1.1988
1.2117
1.2246
1.2246
1.2117
1.2117
1.1859
1.1859
1.1988
1.2117
1.2246
1.2246
1.2246
1.2117
1.2117
1.1988
1.2117
1.2246
1.2375
1.2375
1.2246
1.2246
1.2246
1.2246
1.2117
1.2375
1.2504
1.2504
1.2375
1.2375
1.2246
1.2246
1.2246
1.2375
1.2504
1.2504
1.2633
1.2633
1.2375
1.2375
1.2375
1.2375
1.2504
1.2504
1.2633
1.2633
1.2633
1.2504
1.2375
1.2504
1.2633
1.2762
1.2891
1.2891
1.2762
1.2762
1.2633
1.2633
1.2762
1.2891
1.302
1.3148
1.3148
1.3148
1.3148
1.302
1.302
1.3277
1.3277
1.3406
1.3406
1.3277
1.3277
1.3148
1.3277
1.3277
1.3406
1.3664
1.3535
1.3535
1.3406
1.3277
1.3277
1.3277
1.3277
1.3406
1.3406
1.3406
1.3277
1.3148
1.302
1.302
1.302
1.3148
1.3148
1.3148
1.3148
1.302
1.302
1.2891
1.3148
1.3148
1.3148
1.3277
1.3148
1.3148
1.302
1.2891
1.302
1.3148
1.3148
1.3277
1.3277
1.3277
1.3148
1.302
1.3148
1.3148
1.3277
1.3406
1.3277
1.3277
1.3277
1.3148
1.3148
1.3277
1.3406
1.3535
1.3406
1.3406
1.3406
1.3277
1.3277
1.3406
1.3664
1.3922
1.418
1.4437
1.4695
1.4953
1.5469
1.5984
1.6629
1.7402
1.7918
1.8176
1.8176
1.7918
1.7402
1.6887
1.65
1.5984
1.5469
1.4953
1.4566
1.418
1.3922
1.3664
1.3664
1.3793
1.3922
1.3922
1.418
1.3922
1.3922
1.3922
1.3922
1.4051
1.418
1.4309
1.4309
1.4309
1.418
1.4051
1.4051
1.418
1.4309
1.4309
1.4437
1.4437
1.4309
1.4309
1.4309
1.4309
1.4437
1.4566
1.4695
1.4695
1.4695
1.4695
1.4566
1.4566
1.4566
1.4824
1.4953
1.4953
1.4953
1.4953
1.4824
1.4824
1.4824
1.4953
1.5082
1.5211
1.5211
1.5211
1.5082
1.5082
1.5082
1.5211
1.534
1.5469
1.5469
1.5469
1.534
1.534
1.5469
1.5469
1.5727
1.5855
1.5855
1.5855
1.5855
1.5855
1.5855
1.5855
1.6113
1.6242
1.6371
1.6371
1.6371
1.6371
1.6242
1.6371
1.6371
1.6629
1.6758
1.6758
1.6758
1.6758
1.6629
1.6629
1.6758
1.6887
1.7016
1.7145
1.7145
1.7145
1.7016
1.6887
1.7016
1.7016
1.7145
1.7273
1.7145
1.7145
1.7016
1.7016
1.6887
1.6887
1.6887
1.7016
1.7016
1.6887
1.6758
1.65
1.65
1.6371
1.6371
1.6371
1.6371
1.6371
1.6113
1.5984
1.5855
1.5855
1.5855
1.5984
1.5984
1.5984
1.5855
1.5727
1.5598
1.5598
1.5598
1.5727
1.5855
1.5855
1.5727
1.5727
1.5598
1.5469
1.5469
1.5598
1.5727
1.5727
1.5855
1.5727
1.5598
1.5598
1.5469
1.5598
1.5727
1.5855
1.5855
1.5855
1.5727
1.5598
1.5598
1.5727
1.5855
1.5855
1.5984
1.5984
1.5855
1.5727
1.5598
1.5727
1.5855
1.5984
1.6113
1.6113
1.6113
1.5984
1.5984
1.5984
1.5984
1.6113
1.6242
1.6242
1.6242
1.6242
1.6113
1.6113
1.6113
1.6242
1.6371
1.6371
1.6371
1.6242
1.6242
1.6113
1.6242
1.6242
1.6371
1.65
1.65
1.6371
1.6371
1.6242
1.6242
1.6371
1.65
1.6629
1.6629
1.65
1.6629
1.6371
1.6371
1.6371
1.65
1.6629
1.6629
1.6758
1.6629
1.65
1.65
1.6371
1.65
1.6629
1.6758
1.6758
1.6629
1.6629
1.6629
1.65
1.65
1.6629
1.6758
1.6887
1.6887
1.6887
1.6758
1.6758
1.6758
1.6758
1.6887
1.6887
1.7016
1.7016
1.6887
1.6887
1.6887
1.7016
1.7145
1.7273
1.7402
1.7402
1.7273
1.7273
1.7273
1.7402
1.7531
1.766
1.7789
1.7789
1.7789
1.7789
1.766
1.7789
1.7918
1.8047
1.8047
1.8047
1.8047
1.7918
1.7918
1.7918
1.8047
1.8047
1.8176
1.8176
1.8176
1.8047
1.7918
1.7789
1.7789
1.7918
1.7918
1.7918
1.7789
1.766
1.7531
1.7531
1.7402
1.7402
1.7531
1.7531
1.7531
1.7531
1.7273
1.7273
1.7145
1.7273
1.7402
1.7402
1.7402
1.7402
1.7273
1.7145
1.7145
1.7145
1.7145
1.7273
1.7273
1.7402
1.7273
1.7145
1.7016
1.7016
1.7016
1.7145
1.7273
1.7273
1.7273
1.7016
1.6887
1.6887
1.6887
1.7016
1.7145
1.7145
1.7145
1.7016
1.6887
1.6758
1.6758
1.6887
1.7273
1.7402
1.7531
1.766
1.7918
1.8176
1.8691
1.9207
1.998
2.0625
2.1141
2.127
2.1141
2.0754
2.0367
1.9852
1.9465
1.8949
1.8434
1.7918
1.7402
1.7016
1.6758
1.6629
1.6629
1.6629
1.6758
1.6758
1.6758
1.6758
1.6629
1.65
1.6758
1.6758
1.6887
1.6887
1.6887
1.6758
1.6758
1.6629
1.6629
1.6629
1.6887
1.6887
1.6887
1.6758
1.6629
1.6629
1.65
1.6629
1.6758
1.6887
1.6758
1.6758
1.6629
1.65
1.65
1.6629
1.6758
1.6758
1.6758
1.6758
1.6629
1.65
1.65
1.65
1.6629
1.6758
1.6758
1.6758
1.6758
1.6629
1.6629
1.6629
1.6629
1.6758
1.6887
1.6887
1.6887
1.6887
1.6758
1.6758
1.6758
1.6758
1.7016
1.7145
1.7145
1.7016
1.6887
1.6887
1.6887
1.7016
1.7145
1.7273
1.7402
1.7402
1.7273
1.7145
1.7145
1.7273
1.7402
1.7531
1.7531
1.7531
1.7402
1.7273
1.7273
1.7402
1.7402
1.766
1.766
1.766
1.7789
1.7531
1.7531
1.7531
1.7531
1.766
1.766
1.766
1.7531
1.7402
1.7402
1.7273
1.7273
1.7145
1.7273
1.7273
1.7145
1.6887
1.6758
1.6629
1.65
1.65
1.65
1.65
1.6371
1.6242
1.5984
1.5855
1.5727
1.5727
1.5727
1.5855
1.5727
1.5598
1.5469
1.534
1.5211
1.5211
1.534
1.534
1.534
1.534
1.5211
1.4953
1.4824
1.4953
1.4953
1.5082
1.5082
1.5082
1.4953
1.4953
1.4695
1.4695
1.4824
1.4824
1.4953
1.4953
1.4824
1.4824
1.4695
1.4566
1.4566
1.4566
1.4695
1.4824
1.4695
1.4566
1.4566
1.4437
1.4437
1.4437
1.4566
1.4566
1.4566
1.4566
1.4437
1.4309
1.4309
1.4309
1.4437
1.4566
1.4566
1.4566
1.4437
1.4309
1.418
1.4309
1.4309
1.4309
1.4437
1.4437
1.4309
1.418
1.4051
1.4051
1.4051
1.418
1.4309
1.418
1.418
1.4051
1.3922
1.3793
1.3793
1.3922
1.3922
1.4051
1.3922
1.3922
1.3793
1.3664
1.3535
1.3793
1.3793
1.3793
1.3793
1.3664
1.3535
1.3535
1.3406
1.3406
1.3406
1.3535
1.3535
1.3535
1.3406
1.3277
1.3277
1.3148
1.3148
1.3406
1.3277
1.3277
1.3148
1.3148
1.302
1.2891
1.302
1.302
1.3148
1.3148
1.302
1.2891
1.2762
1.2762
1.2762
1.2762
1.2891
1.2891
1.2891
1.2762
1.2633
1.2504
1.2375
1.2504
1.2633
1.2762
1.2633
1.2504
1.2375
1.2375
1.2375
1.2375
1.2504
1.2504
1.2633
1.2633
1.2504
1.2375
1.2375
1.2246
1.2375
1.2504
1.2504
1.2633
1.2633
1.2504
1.2375
1.2375
1.2375
1.2504
1.2633
1.2633
1.2504
1.2375
1.2246
1.2246
1.2375
1.2375
1.2504
1.2504
1.2375
1.2246
1.1988
1.1988
1.1859
1.1859
1.1988
1.1988
1.1859
1.1859
1.1602
1.1473
1.1473
1.1473
1.1473
1.1473
1.1473
1.1473
1.1344
1.1215
1.1086
1.1086
1.1215
1.1215
1.1344
1.1344
1.1215
1.1086
1.0957
1.0957
1.0957
1.1086
1.1215
1.1086
1.0957
1.0828
1.0699
1.0699
1.0699
1.0828
1.0957
1.0957
1.0957
1.0828
1.0699
1.0699
1.0699
1.0699
1.0828
1.0699
1.0699
1.057
1.057
1.057
1.0699
1.0828
1.1086
1.1473
1.1859
1.2117
1.2504
1.2891
1.3535
1.4051
1.4566
1.4824
1.4824
1.4566
1.4051
1.3535
1.2891
1.2246
1.1859
1.1344
1.1086
1.0699
1.0441
1.0184
1.0055
1.0055
1.0184
1.0184
1.0441
1.0441
1.0313
1.0184
1.0055
1.0055
1.0184
1.0313
1.0313
1.0441
1.0441
1.0313
1.0184
1.0055
1.0055
1.0184
1.0313
1.0313
1.0313
1.0184
1.0184
1.0055
1.0055
1.0055
1.0184
1.0313
1.0313
1.0313
1.0184
1.0055
1.0055
1.0055
1.0184
1.0313
1.0313
1.0184
1.0184
1.0184
1.0055
1.0055
1.0184
1.0313
1.0313
1.0313
1.0313
1.0184
1.0184
1.0055
1.0184
1.0184
1.0313
1.0441
1.0441
1.0313
1.0184
1.0184
1.0184
1.0313
1.0441
1.057
1.057
1.0441
1.0441
1.0313
1.0313
1.0441
1.057
1.0699
1.0828
1.0699
1.0699
1.0699
1.0699
1.0699
1.0828
1.0957
1.0957
1.0957
1.0957
1.0828
1.0828
1.0828
1.0957
1.1086
1.1215
1.1086
1.1086
1.0957
1.0957
1.0828
1.0957
1.0957
1.1086
1.1086
1.0957
1.0828
1.0699
1.057
1.057
1.0441
1.057
1.057
1.0441
1.0313
1.0055
0.9926
0.9797
0.9797
0.9797
0.9797
0.9668
0.9539
0.941
0.9152
0.9152
0.9152
0.9152
0.9023
0.9023
0.9023
0.8895
0.8637
0.8637
0.8508
0.8637
0.8766
0.8766
0.8766
0.8637
0.8508
0.8379
0.8379
0.8508
0.8508
0.8508
0.8508
0.8508
0.8379
0.825
0.825
0.825
0.8379
0.8379
0.8379
0.825
0.825
0.825
0.8121
0.8121
0.825
0.8379
0.8379
0.8379
0.8379
0.8121
0.8121
0.8121
0.8121
0.825
0.8379
0.825
0.825
0.8121
0.8121
0.8121
0.7992
0.8121
0.825
0.825
0.825
0.825
0.8121
0.7992
0.7992
0.7992
0.8121
0.825
0.825
0.8121
0.8121
0.7992
0.7992
0.8121
0.8121
0.825
0.825
0.8121
0.8121
0.7992
0.7863
0.7863
0.7992
0.8121
0.8121
0.8121
0.7992
0.7863
0.7734
0.7863
0.7863
0.7992
0.8121
0.8121
0.8121
0.7863
0.7734
0.7734
0.7734
0.7734
0.7863
0.7992
0.7992
0.7863
0.7734
0.7734
0.7605
0.7734
0.7863
0.7863
0.7863
0.7734
0.7605
0.7605
0.7605
0.7605
0.7605
0.7734
0.7734
0.7734
0.7605
0.7477
0.7477
0.7477
0.7605
0.7605
0.7734
0.7605
0.7605
0.7477
0.7477
0.7348
0.7477
0.7605
0.7605
0.7605
0.7477
0.7477
0.7348
0.7348
0.7348
0.7477
0.7605
0.7605
0.7605
0.7477
0.7348
0.7348
0.7348
0.7477
0.7605
0.7734
0.7605
0.7605
0.7605
0.7477
0.7477
0.7477
0.7605
0.7734
0.7734
0.7734
0.7734
0.7605
0.7605
0.7734
0.7734
0.7863
0.7863
0.7863
0.7863
0.7734
0.7734
0.7734
0.7863
0.7863
0.7863
0.7863
0.7734
0.7605
0.7477
0.7477
0.7477
0.7605
0.7605
0.7605
0.7477
0.7348
0.7219
0.709
0.7219
0.7219
0.7348
0.7348
0.7219
0.7219
0.709
0.6961
0.6961
0.6961
0.709
0.709
0.709
0.709
0.6961
0.6961
0.6832
0.6961
0.6961
0.6961
0.709
0.6961
0.6961
0.6832
0.6832
0.6832
0.6961
0.6961
0.709
0.709
0.6961
0.6961
0.6703
0.6703
0.6832
0.6961
0.6961
0.6961
0.6832
0.6832
0.6832
0.6832
0.6961
0.7219
0.7477
0.7734
0.8121
0.8379
0.8766
0.9152
0.9926
1.057
1.0957
1.1215
1.1086
1.0828
1.0313
0.9797
0.9152
0.8637
0.825
0.7992
0.7605
0.7348
0.709
0.6832
0.6832
0.6832
0.6832
0.6961
0.6961
0.6961
0.6961
0.6832
0.6832
0.6703
0.6832
0.6961
0.709
0.7219
0.709
0.6961
0.6961
0.6961
0.6961
0.709
0.7219
0.7219
0.709
0.709
0.6961
0.6961
0.6961
0.709
0.7219
0.7219
0.7219
0.7219
0.709
0.709
0.709
0.709
0.7219
0.7477
0.7477
0.7348
0.7348
0.7219
0.7219
0.7219
0.7348
0.7477
0.7605
0.7477
0.7477
0.7348
0.7348
0.7477
0.7477
0.7605
0.7734
0.7734
0.7605
0.7477
0.7477
0.7477
0.7605
0.7734
0.7863
0.7863
0.7992
0.7863
0.7734
0.7734
0.7863
0.7992
0.8121
0.825
0.825
0.8121
0.8121
0.7992
0.8121
0.8121
0.8379
0.8508
0.8508
0.8508
0.8379
0.8379
0.8379
0.8379
0.8508
0.8766
0.8766
0.8766
0.8637
0.8637
0.8508
0.8637
0.8637
0.8895
0.8766
0.8766
0.8766
0.8637
0.8508
0.8379
0.8379
0.8508
0.8508
0.8508
0.825
0.8121
0.7992
0.7863
0.7863
0.7863
0.7863
0.7863
0.7734
0.7477
0.7348
0.7219
0.7219
0.709
0.7219
0.7219
0.7219
0.7219
0.6961
0.6832
0.6832
0.6832
0.6961
0.6961
0.709
0.6961
0.6961
0.6703
0.6703
0.6574
0.6703
0.6832
0.6961
0.6832
0.6832
0.6703
0.6574
0.6574
0.6703
0.6832
0.6832
0.6832
0.6832
0.6832
0.6703
0.6574
0.6574
0.6703
0.6832
0.6961
0.6832
0.6832
0.6703
0.6703
0.6703
0.6703
0.6832
0.6961
0.6961
0.6832
0.6703
0.6703
0.6703
0.6703
0.6832
0.6961
0.6961
0.6961
0.6832
0.6832
0.6703
0.6832
0.6832
0.6961
0.709
0.709
0.6961
0.6832
0.6703
0.6832
0.6832
0.6961
0.6961
0.709
0.709
0.6961
0.6832
0.6703
0.6703
0.6832
0.6961
0.6961
0.6961
0.6961
0.6832
0.6832
0.6703
0.6703
0.6961
0.6961
0.6961
0.6961
0.6832
0.6832
0.6703
0.6703
0.6832
0.6961
0.6961
0.6961
0.6961
0.6703
0.6703
0.6703
0.6832
0.6832
0.709
0.6961
0.6832
0.6832
0.6703
0.6703
0.6832
0.6961
0.6961
0.6961
0.6961
0.6832
0.6832
0.6703
0.6832
0.6832
0.6961
0.709
0.6961
0.6961
0.6832
0.6832
0.6703
0.6832
0.6961
0.7219
0.709
0.7219
0.709
0.6961
0.6961
0.6961
0.709
0.7219
0.7348
0.7348
0.7348
0.7219
0.7219
0.7219
0.7348
0.7477
0.7605
0.7477
0.7477
0.7348
0.7348
0.7348
0.7477
0.7477
0.7605
0.7605
0.7477
0.7348
0.7219
0.7219
0.7219
0.7219
0.7219
0.7219
0.7219
0.709
0.6961
0.6832
0.6832
0.6832
0.6961
0.6961
0.6961
0.6961
0.6832
0.6703
0.6703
0.6832
0.6832
0.6961
0.6961
0.6961
0.6832
0.6703
0.6703
0.6703
0.6832
0.6961
0.6961
0.6961
0.6832
0.6832
0.6703
0.6703
0.6703
0.6961
0.6961
0.6961
0.6961
0.6832
0.6832
0.6703
0.6703
0.6832
0.6961
0.6961
0.6961
0.6832
0.6832
0.6832
0.6961
0.7219
0.7477
0.7863
0.825
0.8637
0.9023
0.9539
1.0055
1.0699
1.0957
1.1215
1.1086
1.0699
1.0184
0.9539
0.9023
0.8508
0.8121
0.7863
0.7605
0.7348
0.709
0.6961
0.6832
0.6832
0.6832
0.6961
0.709
0.709
0.709
0.709
0.6961
0.6961
0.709
0.7219
0.7348
0.7348
0.7348
0.7219
0.709
0.709
0.709
0.7219
0.7348
0.7348
0.7477
0.7348
0.7219
0.7219
0.7219
0.7219
0.7477
0.7477
0.7477
0.7477
0.7348
0.7348
0.7348
0.7348
0.7477
0.7605
0.7734
0.7734
0.7605
0.7477
0.7477
0.7477
0.7605
0.7734
0.7863
0.7863
0.7863
0.7734
0.7605
0.7605
0.7734
0.7863
0.7992
0.8121
0.7992
0.7992
0.7863
0.7863
0.7863
0.8121
0.825
0.825
0.825
0.8121
0.8121
0.8121
0.825
0.825
0.8379
0.8508
0.8637
0.8508
0.8508
0.8508
0.8379
0.8508
0.8637
0.8766
0.8895
0.8895
0.8766
0.8766
0.8766
0.8766
0.8895
0.9023
0.9152
0.9152
0.9023
0.9023
0.8895
0.8895
0.9023
0.9152
0.9152
0.9152
0.9152
0.9023
0.8766
0.8766
0.8766
0.8766
0.8766
0.8766
0.8637
0.8379
0.825
0.825
0.7992
0.8121
0.8121
0.8121
0.8121
0.7863
0.7734
0.7605
0.7605
0.7605
0.7605
0.7734
0.7734
0.7605
0.7477
0.7348
0.7348
0.7219
0.7348
0.7477
0.7477
0.7477
0.7348
0.7219
0.709
0.709
0.7219
0.7219
0.7348
0.7348
0.7219
0.709
0.709
0.709
0.709
0.7219
0.7219
0.7348
0.7348
0.7219
0.709
0.6961
0.6961
0.709
0.7219
0.7348
0.7348
0.7348
0.7219
0.709
0.709
0.7219
0.7348
0.7348
0.7477
0.7348
0.7219
0.709
0.709
0.7219
0.7348
0.7477
0.7605
0.7477
0.7477
0.7348
0.7219
0.7219
0.7348
0.7477
0.7605
0.7477
0.7477
0.7348
0.7348
0.7348
0.7348
0.7477
0.7477
0.7605
0.7477
0.7477
0.7219
0.7219
0.7219
0.7348
0.7477
0.7605
0.7605
0.7477
0.7348
0.7348
0.7219
0.7348
0.7477
0.7605
0.7605
0.7477
0.7477
0.7348
0.7348
0.7348
0.7477
0.7605
0.7605
0.7605
0.7477
0.7348
0.7348
0.7348
0.7477
0.7477
0.7605
0.7605
0.7605
0.7348
0.7348
0.7348
0.7348
0.7477
0.7734
0.7734
0.7734
0.7605
0.7477
0.7477
0.7477
0.7734
0.7734
0.7863
0.7863
0.7734
0.7734
0.7605
0.7734
0.7863
0.7992
0.8121
0.8121
0.7992
0.7992
0.7863
0.7863
0.7863
0.7992
0.825
0.825
0.825
0.8121
0.7992
0.7992
0.7992
0.7992
0.8121
0.8121
0.8121
0.7992
0.7734
0.7734
0.7605
0.7734
0.7734
0.7863
0.7863
0.7734
0.7605
0.7477
0.7348
0.7477
0.7605
0.7605
0.7734
0.7605
0.7605
0.7477
0.7348
0.7348
0.7477
0.7605
0.7734
0.7734
0.7605
0.7477
0.7348
0.7348
0.7477
0.7605
0.7605
0.7605
0.7605
0.7477
0.7348
0.7477
0.7477
0.7605
0.7605
0.7734
0.7734
0.7605
0.7605
0.7348
0.7477
0.7477
0.7605
0.7734
0.7734
0.7992
0.7992
0.825
0.8508
0.8895
0.941
1.0055
1.0828
1.1344
1.173
1.1988
1.1988
1.173
1.1602
1.1215
1.0699
1.0055
0.941
0.8766
0.825
0.7992
0.7863
0.7863
0.7863
0.7734
0.7863
0.7605
0.7605
0.7605
0.7605
0.7863
0.7992
0.7992
0.7992
0.7992
0.7863
0.7734
0.7863
0.7992
0.8121
0.8121
0.8121
0.8121
0.7992
0.7992
0.7992
0.7992
0.8121
0.825
0.825
0.825
0.825
0.8121
0.8121
0.8121
0.825
0.8379
0.8379
0.8379
0.825
0.8121
0.8121
0.825
0.825
0.8508
0.8637
0.8637
0.8508
0.8508
0.8508
0.8379
0.8508
0.8637
0.8766
0.8766
0.8766
0.8766
0.8637
0.8508
0.8637
0.8766
0.8895
0.9023
0.9023
0.9023
0.8895
0.8766
0.8766
0.8895
0.9152
0.9152
0.9281
0.941
0.941
0.9281
0.9281
0.941
0.9539
0.9668
0.9797
0.9797
0.9797
0.9668
0.9668
0.9668
0.9797
0.9926
1.0055
1.0055
0.9926
0.9926
0.9797
0.9926
0.9926
1.0055
1.0184
1.0184
1.0184
1.0055
1.0055
0.9926
0.9926
0.9926
1.0184
1.0055
1.0055
0.9926
0.9797
0.9539
0.941
0.9539
0.941
0.9539
0.941
0.9281
0.9152
0.8895
0.8895
0.8766
0.8895
0.8895
0.8895
0.8766
0.8637
0.8508
0.8379
0.8379
0.8508
0.8508
0.8508
0.8508
0.8508
0.825
0.8121
0.8121
0.825
0.8379
0.8379
0.8379
0.8379
0.825
0.825
0.8121
0.8121
0.825
0.8379
0.8379
0.8379
0.825
0.8121
0.8121
0.8121
0.825
0.825
0.8379
0.8379
0.825
0.825
0.825
0.8121
0.825
0.825
0.8379
0.8508
0.8508
0.8379
0.825
0.825
0.825
0.8379
0.8637
0.8508
0.8637
0.8508
0.8508
0.8379
0.8379
0.8508
0.8508
0.8637
0.8637
0.8637
0.8508
0.8508
0.8379
0.8508
0.8637
0.8766
0.8766
0.8766
0.8637
0.8508
0.8508
0.8508
0.8637
0.8637
0.8766
0.8895
0.8637
0.8637
0.8508
0.8508
0.8637
0.8766
0.8766
0.8895
0.8766
0.8766
0.8637
0.8508
0.8508
0.8637
0.8766
0.8895
0.8895
0.8766
0.8637
0.8637
0.8637
0.8637
0.8766
0.8895
0.8895
0.8766
0.8766
0.8637
0.8637
0.8637
0.8766
0.8766
0.9023
0.8895
0.8637
0.8637
0.8637
0.8637
0.8637
0.8766
0.8895
0.8895
0.8895
0.8637
0.8637
0.8637
0.8637
0.8766
0.8895
0.9023
0.9023
0.8895
0.8766
0.8766
0.8895
0.9023
0.9152
0.9152
0.9281
0.9152
0.9023
0.9023
0.9023
0.9152
0.9281
0.941
0.941
0.941
0.9281
0.9281
0.9281
0.941
0.941
0.9668
0.9668
0.9668
0.9539
0.941
0.941
0.941
0.9539
0.9539
0.9539
0.9539
0.941
0.9281
0.9152
0.9152
0.9281
0.9281
0.9281
0.9281
0.9152
0.9023
0.8895
0.8895
0.8895
0.9023
0.9152
0.9152
0.9152
0.9023
0.8895
0.8766
0.8766
0.8766
0.8895
0.9023
0.9023
0.8895
0.8766
0.8766
0.8766
0.8895
0.9023
0.9023
0.9152
0.9023
0.8895
0.8766
0.8766
0.8895
0.8895
0.9152
0.9023
0.9023
0.9023
0.8895
0.8766
0.8766
0.8895
0.9023
0.9152
0.9152
0.9152
0.9152
0.9281
0.9539
0.9797
1.0313
1.0957
1.1602
1.2117
1.2762
1.302
1.3406
1.3406
1.3406
1.3148
1.2762
1.2246
1.1602
1.0828
1.0184
0.9797
0.9539
0.941
0.9281
0.9281
0.9023
0.9023
0.9023
0.8895
0.9023
0.9152
0.9152
0.9281
0.9281
0.9281
0.9152
0.9152
0.9281
0.9281
0.941
0.941
0.9539
0.941
0.9281
0.9281
0.9281
0.9281
0.941
0.9668
0.9668
0.9668
0.9539
0.941
0.941
0.941
0.9539
0.9668
0.9797
0.9797
0.9668
0.9539
0.9539
0.9539
0.9668
0.9797
0.9926
0.9926
0.9926
0.9797
0.9668
0.9797
0.9797
0.9926
1.0055
1.0055
1.0055
1.0055
0.9926
0.9926
0.9926
1.0055
1.0184
1.0313
1.0313
1.0313
1.0184
1.0184
1.0184
1.0313
1.0441
1.057
1.057
1.0699
1.057
1.057
1.057
1.057
1.0699
1.0957
1.1086
1.0957
1.0957
1.0828
1.0828
1.0957
1.1086
1.1215
1.1344
1.1344
1.1344
1.1215
1.1215
1.1215
1.1215
1.1344
1.1473
1.1602
1.1473
1.1473
1.1344
1.1215
1.1215
1.1344
1.1473
1.1473
1.1473
1.1344
1.1086
1.0957
1.0957
1.0828
1.0957
1.0957
1.0828
1.0699
1.057
1.0441
1.0313
1.0313
1.0313
1.0313
1.0313
1.0184
0.9926
0.9797
0.9797
0.9797
0.9797
0.9926
0.9926
0.9797
0.9797
0.9668
0.9539
0.9539
0.9539
0.9668
0.9668
0.9668
0.9668
0.9539
0.941
0.9539
0.9539
0.9539
0.9668
0.9668
0.9668
0.9668
0.941
0.941
0.941
0.9539
0.9668
0.9668
0.9668
0.9539
0.9539
0.9539
0.9539
0.9539
0.9668
0.9797
0.9797
0.9797
0.9668
0.9539
0.9539
0.9539
0.9668
0.9797
0.9797
0.9797
0.9797
0.9668
0.9668
0.9668
0.9797
0.9797
0.9926
1.0055
0.9926
0.9668
0.9668
0.9668
0.9668
0.9797
0.9926
1.0055
0.9926
0.9926
0.9797
0.9668
0.9668
0.9797
0.9926
1.0055
1.0055
0.9926
0.9797
0.9797
0.9668
0.9797
0.9926
0.9926
0.9926
1.0055
0.9926
0.9668
0.9668
0.9797
0.9797
0.9797
0.9926
0.9926
0.9797
0.9668
0.9668
0.9668
0.9926
0.9797
0.9926
0.9926
0.9926
0.9797
0.9668
0.9668
0.9668
0.9797
0.9926
0.9926
0.9797
0.9797
0.9797
0.9668
0.9668
0.9797
0.9926
0.9926
0.9926
0.9797
0.9797
0.9668
0.9668
0.9668
0.9926
0.9926
0.9926
0.9926
0.9797
0.9668
0.9668
0.9668
0.9797
0.9926
0.9926
0.9926
0.9797
0.9668
0.9668
0.9668
0.9797
0.9926
0.9926
1.0055
1.0055
0.9926
0.9797
0.9797
0.9926
1.0055
1.0184
1.0313
1.0055
1.0055
1.0055
1.0055
1.0055
1.0313
1.0313
1.0441
1.0441
1.0313
1.0313
1.0184
1.0313
1.0313
1.0441
1.057
1.057
1.0441
1.0441
1.0313
1.0313
1.0313
1.0313
1.0441
1.0441
1.0313
1.0313
1.0055
0.9926
0.9797
0.9926
1.0055
1.0055
1.0055
0.9926
0.9926
0.9668
0.9668
0.9668
0.9797
0.9926
1.0055
0.9926
0.9797
0.9668
0.9539
0.9668
0.9668
0.9797
0.9926
0.9797
0.9797
0.9668
0.9668
0.9668
0.9668
0.9797
0.9926
0.9926
0.9797
0.9668
0.9668
0.9668
0.9668
0.9797
0.9926
0.9926
0.9797
0.9797
0.9668
0.9539
0.9668
0.9668
0.9797
1.0055
1.0055
1.0055
1.0184
1.0441
1.0828
1.1344
1.1988
1.2633
1.3277
1.3793
1.4051
1.418
1.4051
1.3922
1.3664
1.3148
1.2633
1.1988
1.1344
1.0699
1.0313
0.9926
0.9926
0.9926
0.9926
0.9926
0.9797
0.9797
0.9668
0.9668
0.9797
0.9926
1.0055
1.0055
0.9926
0.9926
0.9926
0.9926
0.9926
0.9926
1.0055
1.0055
1.0055
1.0055
0.9926
0.9926
0.9926
1.0055
1.0055
1.0184
1.0184
1.0184
1.0055
1.0055
0.9926
1.0055
1.0184
1.0313
1.0313
1.0313
1.0313
1.0184
1.0184
1.0184
1.0184
1.0313
1.0441
1.0441
1.0313
1.0313
1.0184
1.0313
1.0313
1.0441
1.057
1.057
1.057
1.0441
1.0441
1.0441
1.0441
1.057
1.0828
1.0828
1.0828
1.0699
1.0699
1.0699
1.0699
1.0828
1.1086
1.1086
1.1215
1.1086
1.0957
1.0957
1.0957
1.1086
1.1215
1.1473
1.1473
1.1473
1.1344
1.1344
1.1344
1.1473
1.1602
1.173
1.173
1.173
1.173
1.1602
1.1602
1.1602
1.1602
1.1859
1.1859
1.1859
1.1859
1.173
1.1602
1.1602
1.173
1.173
1.173
1.173
1.1602
1.1473
1.1344
1.1215
1.1215
1.1215
1.1215
1.1215
1.1086
1.0957
1.0828
1.057
1.0441
1.0441
1.057
1.057
1.0441
1.0441
1.0184
1.0055
1.0055
1.0055
1.0055
1.0055
1.0055
1.0055
1.0055
0.9797
0.9797
0.9797
0.9797
0.9926
1.0055
0.9926
0.9926
0.9668
0.9539
0.9539
0.9668
0.9668
0.9797
0.9797
0.9797
0.9797
0.9668
0.9539
0.9668
0.9668
0.9797
0.9797
0.9797
0.9797
0.9668
0.9539
0.9539
0.9668
0.9797
0.9926
0.9926
0.9926
0.9797
0.9668
0.9668
0.9668
0.9797
0.9926
1.0055
0.9926
0.9926
0.9797
0.9797
0.9668
0.9797
0.9926
1.0055
0.9926
0.9926
0.9797
0.9797
0.9668
0.9797
0.9926
0.9926
1.0055
0.9926
0.9797
0.9797
0.9797
0.9797
0.9797
1.0055
1.0055
0.9926
0.9926
0.9797
0.9668
0.9668
0.9797
0.9797
0.9926
1.0055
0.9926
0.9797
0.9797
0.9668
0.9797
0.9797
0.9926
0.9926
0.9926
0.9926
0.9797
0.9668
0.9797
0.9797
0.9926
1.0055
0.9926
0.9926
0.9797
0.9668
0.9797
0.9797
0.9926
0.9926
0.9926
0.9926
0.9926
0.9668
0.9668
0.9797
0.9797
0.9926
0.9926
0.9926
0.9926
0.9668
0.9668
0.9668
0.9797
0.9797
0.9926
1.0055
0.9926
0.9668
0.9668
0.9668
0.9668
0.9797
0.9926
0.9926
0.9797
0.9668
0.9668
0.9668
0.9668
0.9668
0.9797
0.9926
0.9926
0.9797
0.9668
0.9539
0.9539
0.9668
0.9797
0.9797
0.9926
0.9797
0.9797
0.9668
0.9539
0.9668
0.9797
0.9926
1.0055
0.9926
0.9926
0.9926
0.9797
0.9797
0.9926
1.0055
1.0184
1.0184
1.0184
1.0184
1.0055
1.0055
1.0184
1.0313
1.0313
1.0313
1.0313
1.0184
1.0184
1.0055
1.0184
1.0313
1.0441
1.0441
1.0441
1.0313
1.0184
1.0055
1.0055
1.0055
1.0184
1.0184
1.0184
1.0055
0.9926
0.9797
0.9668
0.9668
0.9797
0.9797
0.9797
0.9797
0.9668
0.9539
0.9539
0.941
0.9539
0.9668
0.9797
0.9797
0.9668
0.9539
0.941
0.941
0.941
0.9668
0.9668
0.9668
0.9668
0.9539
0.941
0.941
0.9539
0.941
0.9668
0.9668
0.9668
0.9539
0.9539
0.941
0.941
0.941
0.9539
0.9668
0.9668
0.9539
0.941
0.941
0.941
0.9539
0.9797
1.0055
1.0313
1.0699
1.0957
1.1344
1.1859
1.2504
1.3148
1.3664
1.4051
1.418
1.3793
1.3406
1.2891
1.2375
1.1859
1.1344
1.0957
1.057
1.0184
0.9797
0.9539
0.941
0.941
0.9539
0.9668
0.9797
0.9797
0.9668
0.9539
0.9539
0.9539
0.9668
0.9668
0.9797
0.9797
0.9668
0.9668
0.9668
0.9539
0.9539
0.9668
0.9797
0.9926
0.9797
0.9668
0.9668
0.9539
0.9539
0.9668
0.9797
0.9926
0.9926
0.9926
0.9797
0.9797
0.9668
0.9797
0.9926
1.0055
1.0055
0.9926
0.9926
0.9797
0.9797
0.9926
0.9926
1.0055
1.0184
1.0184
1.0055
0.9926
0.9926
0.9926
1.0055
1.0313
1.0313
1.0441
1.0313
1.0184
1.0184
1.0184
1.0313
1.0441
1.057
1.0441
1.057
1.0441
1.0441
1.0441
1.0441
1.057
1.0828
1.0828
1.0957
1.0828
1.0828
1.0699
1.0828
1.0957
1.1086
1.1086
1.1215
1.1215
1.1086
1.1086
1.1086
1.1215
1.1344
1.1344
1.1473
1.1473
1.1344
1.1215
1.1215
1.1215
1.1473
1.1473
1.1473
1.1473
1.1344
1.1344
1.1215
1.1086
1.1215
1.1215
1.1215
1.1215
1.1086
1.0957
1.0699
1.057
1.057
1.057
1.0699
1.057
1.0441
1.0313
1.0055
1.0055
1.0055
0.9926
1.0055
1.0055
1.0055
0.9797
0.9668
0.9539
0.9539
0.9539
0.9668
0.9797
0.9668
0.9668
0.9539
0.941
0.9281
0.941
0.941
0.9539
0.9539
0.9539
0.9539
0.9281
0.9281
0.9281
0.941
0.941
0.9539
0.9539
0.941
0.9281
0.9281
0.9281
0.9281
0.941
0.941
0.9539
0.9539
0.941
0.9281
0.9281
0.9281
0.941
0.9539
0.9539
0.9539
0.9539
0.941
0.9281
0.9281
0.9281
0.941
0.9539
0.9539
0.9539
0.941
0.9281
0.9281
0.9281
0.941
0.9539
0.9668
0.9539
0.9539
0.941
0.9281
0.9281
0.941
0.9539
0.9668
0.9668
0.9539
0.9539
0.941
0.941
0.941
0.9539
0.9668
0.9539
0.9539
0.941
0.941
0.9281
0.9281
0.941
0.941
0.9539
0.9539
0.941
0.941
0.9281
0.941
0.941
0.9539
0.9668
0.9539
0.9539
0.941
0.9281
0.9281
0.9281
0.941
0.9539
0.9539
0.9539
0.941
0.9281
0.9281
0.9152
0.9281
0.941
0.9539
0.9539
0.941
0.941
0.9152
0.9281
0.9281
0.941
0.9539
0.9539
0.941
0.9281
0.9281
0.9281
0.9281
0.9281
0.941
0.9539
0.941
0.941
0.9281
0.9281
0.9281
0.9281
0.9539
0.9539
0.9539
0.9539
0.9539
0.9281
0.941
0.941
0.9539
0.9668
0.9797
0.9668
0.9668
0.9668
0.9539
0.9668
0.9797
0.9926
1.0055
0.9926
0.9797
0.9797
0.9668
0.9797
0.9797
1.0055
1.0055
1.0055
1.0055
0.9926
0.9797
0.9797
0.9797
0.9797
0.9797
0.9926
0.9797
0.9668
0.9539
0.941
0.941
0.9539
0.9539
0.9539
0.9539
0.941
0.941
0.9152
0.9281
0.9281
0.9281
0.941
0.941
0.941
0.9281
0.9152
0.9152
0.9152
0.9281
0.9281
0.9281
0.941
0.9281
0.9152
0.9152
0.9152
0.9152
0.9281
0.941
0.941
0.9281
0.9281
0.9152
0.9152
0.9152
0.9281
0.941
0.941
0.9281
0.9152
0.9152
0.9023
0.9023
0.9281
0.941
0.9539
0.9797
0.9926
1.0055
1.0313
1.0828
1.1473
1.2117
1.2762
1.3277
1.3406
1.3277
1.2891
1.2633
1.2117
1.173
1.1344
1.0957
1.0441
1.0055
0.9668
0.941
0.9281
0.9281
0.941
0.941
0.9539
0.941
0.9281
0.9281
0.9281
0.9281
0.941
0.9539
0.9539
0.9539
0.9539
0.941
0.941
0.941
0.9539
0.9668
0.9668
0.9668
0.9539
0.9539
0.9539
0.9539
0.9539
0.9668
0.9797
0.9797
0.9668
0.9797
0.9668
0.9539
0.9668
0.9797
0.9926
0.9926
0.9926
0.9797
0.9797
0.9797
0.9797
0.9797
0.9926
1.0055
1.0055
1.0055
0.9926
0.9926
0.9926
1.0055
1.0184
1.0184
1.0313
1.0313
1.0184
1.0055
1.0055
1.0055
1.0313
1.0313
1.057
1.0441
1.0441
1.0441
1.0313
1.0313
1.057
1.057
1.0828
1.0828
1.0828
1.0699
1.0699
1.0699
1.0699
1.0957
1.1086
1.1215
1.1086
1.1086
1.0957
1.0957
1.0957
1.1215
1.1215
1.1344
1.1473
1.1344
1.1215
1.1215
1.1215
1.1344
1.1344
1.1473
1.1602
1.1473
1.1473
1.1344
1.1215
1.1215
1.1344
1.1473
1.1344
1.1344
1.1215
1.0957
1.0828
1.0699
1.0699
1.0699
1.0828
1.0699
1.057
1.0313
1.0184
1.0184
1.0055
1.0184
1.0184
1.0184
1.0055
0.9926
0.9797
0.9668
0.9668
0.9668
0.9668
0.9797
0.9797
0.9668
0.9539
0.941
0.9539
0.9539
0.9539
0.9668
0.9668
0.9668
0.941
0.941
0.941
0.941
0.9539
0.9668
0.9668
0.9668
0.9539
0.941
0.941
0.941
0.941
0.9539
0.9668
0.9668
0.9539
0.941
0.941
0.941
0.9539
0.9539
0.9668
0.9797
0.9668
0.9539
0.9539
0.9539
0.9539
0.9539
0.9668
0.9797
0.9797
0.9668
0.9539
0.9539
0.9539
0.9668
0.9668
0.9797
0.9797
0.9797
0.9668
0.9539
0.9539
0.9539
0.9668
0.9797
0.9797
0.9797
0.9668
0.9539
0.941
0.9539
0.9668
0.9797
0.9797
0.9797
0.9668
0.9539
0.9539
0.9539
0.9539
0.9668
0.9797
0.9797
0.9668
0.9668
0.9539
0.9539
0.9539
0.9668
0.9668
0.9797
0.9797
0.9668
0.9539
0.941
0.9539
0.9539
0.9539
0.9668
0.9668
0.9539
0.9539
0.941
0.941
0.9539
0.9539
0.9797
0.9668
0.9668
0.9539
0.9539
0.941
0.9539
0.9668
0.9797
0.9926
0.9926
0.9797
0.9668
0.9668
0.9668
0.9668
0.9797
1.0055
1.0055
1.0055
0.9926
0.9926
0.9926
0.9926
1.0184
1.0184
1.0313
1.0184
1.0184
1.0055
1.0055
1.0055
1.0184
1.0313
1.0441
1.0313
1.0313
1.0055
1.0055
0.9926
0.9926
0.9926
1.0055
0.9926
0.9926
0.9797
0.9668
0.9539
0.9539
0.9668
0.9668
0.9797
0.9668
0.9539
0.9539
0.941
0.941
0.9539
0.9668
0.9668
0.9668
0.9539
0.9539
0.941
0.941
0.941
0.9539
0.9668
0.9668
0.9539
0.9539
0.941
0.941
0.941
0.941
0.9539
0.9668
0.9668
0.9539
0.941
0.941
0.941
0.941
0.9539
0.9668
0.9668
0.9539
0.9539
0.9539
0.9539
0.9668
0.9926
1.0184
1.057
1.0957
1.1344
1.173
1.2375
1.2891
1.3406
1.3793
1.3664
1.3535
1.302
1.2504
1.1988
1.1473
1.0957
1.0699
1.0313
1.0055
0.9797
0.9539
0.941
0.941
0.941
0.941
0.9668
0.9539
0.9668
0.9539
0.9539
0.941
0.9539
0.9668
0.9668
0.9797
0.9797
0.9797
0.9668
0.9668
0.9668
0.9797
0.9797
0.9926
0.9926
0.9926
0.9926
0.9797
0.9668
0.9668
0.9926
1.0055
1.0055
1.0055
1.0055
0.9926
0.9797
0.9926
1.0055
1.0055
1.0184
1.0184
1.0184
1.0055
1.0055
1.0055
1.0055
1.0184
1.0313
1.0441
1.0313
1.0313
1.0184
1.0055
1.0184
1.0313
1.057
1.057
1.057
1.057
1.0441
1.0313
1.0441
1.0441
1.057
1.0699
1.0828
1.0828
1.0699
1.0699
1.0699
1.0699
1.0828
1.1086
1.1086
1.1086
1.1086
1.1086
1.0957
1.1086
1.1086
1.1215
1.1344
1.1344
1.1344
1.1344
1.1215
1.1215
1.1344
1.1473
1.1602
1.1602
1.1602
1.1602
1.1473
1.1473
1.1344
1.1473
1.173
1.173
1.173
1.1602
1.1473
1.1344
1.1344
1.1215
1.1344
1.1344
1.1344
1.1215
1.1086
1.0828
1.0699
1.057
1.0699
1.0699
1.0699
1.057
1.0313
1.0184
1.0055
1.0055
1.0055
1.0184
1.0055
1.0184
1.0055
0.9926
0.9797
0.9668
0.9797
0.9797
0.9926
0.9926
0.9926
0.9668
0.9539
0.9668
0.9668
0.9668
0.9797
0.9797
0.9797
0.9797
0.9668
0.9539
0.9539
0.9539
0.9668
0.9797
0.9797
0.9797
0.9668
0.9539
0.9539
0.9539
0.9668
0.9797
0.9797
0.9797
0.9668
0.9668
0.9539
0.9539
0.9797
0.9797
0.9926
0.9926
0.9926
0.9797
0.9668
0.9668
0.9668
0.9926
0.9926
0.9926
0.9926
0.9797
0.9797
0.9668
0.9668
0.9797
0.9926
1.0055
1.0055
0.9926
0.9668
0.9797
0.9797
0.9926
0.9926
1.0055
1.0055
1.0055
0.9797
0.9797
0.9797
0.9668
0.9926
1.0055
0.9926
0.9926
0.9797
0.9668
0.9668
0.9797
0.9926
0.9926
1.0055
1.0055
0.9926
0.9797
0.9668
0.9668
0.9668
0.9926
0.9926
1.0055
0.9926
0.9797
0.9797
0.9668
0.9797
0.9797
0.9926
1.0055
1.0055
0.9926
0.9797
0.9797
0.9797
0.9797
0.9926
0.9926
0.9926
0.9926
0.9797
0.9797
0.9797
0.9797
1.0055
1.0055
1.0184
1.0184
1.0184
0.9926
0.9926
1.0055
1.0184
1.0184
1.0313
1.0441
1.0313
1.0313
1.0184
1.0184
1.0313
1.0441
1.057
1.057
1.057
1.0441
1.0441
1.0441
1.0441
1.057
1.057
1.057
1.057
1.0441
1.0184
1.0184
1.0055
1.0184
1.0184
1.0313
1.0184
1.0184
1.0055
0.9797
0.9797
0.9926
0.9926
1.0055
1.0055
0.9926
0.9797
0.9668
0.9668
0.9668
0.9797
0.9926
0.9926
0.9926
0.9797
0.9668
0.9668
0.9668
0.9668
0.9797
0.9926
0.9926
0.9926
0.9797
0.9668
0.9668
0.9668
0.9797
0.9926
0.9926
0.9926
0.9797
0.9668
0.9668
0.9668
0.9668
0.9926
0.9926
0.9926
0.9926
0.9926
1.0055
1.0184
1.0441
1.0957
1.1473
1.1988
1.2504
1.302
1.3535
1.3922
1.418
1.4309
1.4051
1.3922
1.3406
1.2633
1.1988
1.1344
1.0699
1.0441
1.0313
1.0184
1.0055
0.9926
0.9797
0.9668
0.9668
0.9797
0.9926
1.0055
1.0055
1.0055
0.9926
0.9926
0.9797
0.9926
1.0055
1.0184
1.0184
1.0313
1.0055
0.9926
0.9926
0.9926
1.0055
1.0184
1.0184
1.0313
1.0184
1.0055
1.0055
1.0055
1.0184
1.0184
1.0441
1.0441
1.0313
1.0441
1.0313
1.0184
1.0313
1.0441
1.0441
1.057
1.057
1.057
1.0441
1.0313
1.0441
1.0441
1.057
1.0699
1.0699
1.0699
1.057
1.057
1.057
1.0699
1.0828
1.0957
1.0957
1.0957
1.0828
1.0828
1.0699
1.0828
1.0828
1.1086
1.1215
1.1215
1.1215
1.1086
1.1086
1.1086
1.1215
1.1344
1.1473
1.1602
1.1602
1.1473
1.1473
1.1473
1.1473
1.173
1.1859
1.1859
1.1859
1.1859
1.173
1.173
1.173
1.1859
1.1988
1.2117
1.1988
1.1988
1.1988
1.1859
1.1859
1.1859
1.1988
1.2117
1.2117
1.1988
1.1859
1.173
1.1602
1.1473
1.1602
1.1602
1.1602
1.1473
1.1344
1.1215
1.1086
1.0957
1.0957
1.0957
1.0957
1.0828
1.0828
1.0699
1.0441
1.0313
1.0441
1.0441
1.057
1.057
1.0441
1.0441
1.0184
1.0184
1.0184
1.0313
1.0313
1.0441
1.0313
1.0313
1.0184
1.0055
1.0055
1.0184
1.0313
1.0313
1.0441
1.0313
1.0184
1.0055
1.0055
1.0184
1.0184
1.0313
1.0313
1.0313
1.0184
1.0055
1.0055
1.0055
1.0184
1.0313
1.0441
1.0441
1.0313
1.0184
1.0055
1.0055
1.0184
1.0313
1.0441
1.0441
1.0441
1.0441
1.0313
1.0184
1.0313
1.0441
1.0441
1.057
1.0441
1.0441
1.0313
1.0184
1.0184
1.0313
1.0441
1.057
1.057
1.057
1.0441
1.0441
1.0313
1.0441
1.0441
1.057
1.0699
1.057
1.057
1.0441
1.0313
1.0441
1.0441
1.057
1.0699
1.0699
1.057
1.0441
1.0441
1.0441
1.0441
1.057
1.0699
1.0699
1.0699
1.057
1.0441
1.0441
1.0441
1.057
1.0699
1.0699
1.0699
1.057
1.057
1.0441
1.057
1.057
1.0699
1.0828
1.0828
1.0699
1.057
1.057
1.057
1.0441
1.057
1.0699
1.0828
1.0699
1.0699
1.057
1.0441
1.057
1.057
1.0699
1.0828
1.0828
1.0828
1.0699
1.0699
1.0699
1.0828
1.0957
1.0957
1.1086
1.1086
1.1086
1.1086
1.0957
1.1086
1.1215
1.1344
1.1344
1.1344
1.1215
1.1215
1.1086
1.1215
1.1344
1.1344
1.1602
1.1602
1.1473
1.1473
1.1215
1.1215
1.1344
1.1215
1.1344
1.1344
1.1215
1.1086
1.0957
1.0828
1.0957
1.0957
1.0957
1.0957
1.0957
1.0957
1.0828
1.0699
1.0699
1.0699
1.0828
1.0828
1.0957
1.0828
1.0699
1.0699
1.057
1.0699
1.0828
1.0957
1.0957
1.0957
1.0828
1.0699
1.057
1.0699
1.0699
1.0957
1.0957
1.0957
1.0828
1.0699
1.0699
1.0699
1.0699
1.0828
1.0957
1.0957
1.0828
1.0699
1.0699
1.0699
1.0828
1.0957
1.1215
1.1344
1.1602
1.1859
1.1988
1.2504
1.302
1.3664
1.4437
1.5082
1.5469
1.5598
1.5469
1.4953
1.4566
1.4051
1.3535
1.302
1.2504
1.1859
1.1473
1.1086
1.0828
1.0828
1.0828
1.0957
1.1086
1.1086
1.1086
1.0957
1.0828
1.0957
1.1086
1.1215
1.1344
1.1344
1.1215
1.1215
1.1086
1.1086
1.1215
1.1344
1.1473
1.1473
1.1473
1.1344
1.1215
1.1215
1.1215
1.1344
1.1473
1.1602
1.1602
1.1473
1.1473
1.1344
1.1215
1.1344
1.1473
1.1602
1.173
1.173
1.1602
1.1473
1.1473
1.1602
1.173
1.1859
1.1859
1.1859
1.173
1.1602
1.173
1.173
1.173
1.1988
1.2117
1.2117
1.1988
1.1988
1.1859
1.1859
1.1988
1.2117
1.2375
1.2246
1.2375
1.2375
1.2246
1.2246
1.2246
1.2375
1.2504
1.2633
1.2633
1.2633
1.2633
1.2504
1.2504
1.2762
1.2891
1.2891
1.302
1.302
1.2891
1.2891
1.2891
1.2891
1.3148
1.3148
1.3277
1.3277
1.3148
1.3148
1.3148
1.3148
1.3277
1.3406
1.3406
1.3406
1.3277
1.3277
1.3148
1.3148
1.302
1.3148
1.3277
1.3148
1.3148
1.2762
1.2633
1.2504
1.2633
1.2633
1.2504
1.2633
1.2504
1.2246
1.2117
1.1988
1.1859
1.1859
1.1988
1.1988
1.1988
1.1859
1.1602
1.1473
1.1602
1.1473
1.1602
1.1602
1.173
1.1602
1.1473
1.1473
1.1215
1.1344
1.1473
1.1602
1.1602
1.1602
1.1473
1.1473
1.1344
1.1344
1.1344
1.1473
1.1602
1.1602
1.1602
1.1473
1.1344
1.1344
1.1344
1.1473
1.1602
1.1602
1.1602
1.1473
1.1473
1.1344
1.1473
1.1473
1.1602
1.173
1.173
1.173
1.1602
1.1602
1.1473
1.1602
1.173
1.1859
1.1859
1.173
1.1602
1.1602
1.1602
1.1602
1.173
1.1859
1.1859
1.1859
1.1859
1.173
1.1602
1.1602
1.173
1.1859
1.1859
1.1859
1.1859
1.1859
1.173
1.173
1.173
1.1859
1.1859
1.1988
1.1859
1.1859
1.173
1.1602
1.173
1.173
1.1988
1.1988
1.1988
1.1859
1.173
1.173
1.173
1.173
1.1859
1.1988
1.1859
1.1859
1.173
1.173
1.173
1.173
1.1859
1.1988
1.1988
1.1988
1.1859
1.173
1.173
1.173
1.1859
1.1859
1.1988
1.1988
1.1859
1.173
1.173
1.173
1.173
1.1859
1.1988
1.1988
1.1859
1.1859
1.173
1.1859
1.1859
1.1988
1.1988
1.2117
1.2117
1.1988
1.1988
1.1859
1.1988
1.2117
1.2117
1.2246
1.2246
1.2246
1.2117
1.2117
1.2246
1.2375
1.2375
1.2504
1.2504
1.2504
1.2375
1.2375
1.2375
1.2375
1.2375
1.2633
1.2633
1.2633
1.2504
1.2375
1.2375
1.2246
1.2246
1.2504
1.2504
1.2375
1.2246
1.2117
1.1988
1.1988
1.1988
1.1988
1.2117
1.2117
1.1988
1.1859
1.1859
1.173
1.173
1.1859
1.1988
1.1988
1.1988
1.1859
1.1859
1.173
1.173
1.173
1.1859
1.1988
1.1988
1.1859
1.173
1.173
1.173
1.173
1.1859
1.1988
1.1988
1.1988
1.1859
1.173
1.173
1.173
1.1859
1.1859
1.1988
1.1988
1.1859
1.173
1.1602
1.173
1.173
1.2117
1.2246
1.2504
1.2633
1.2762
1.302
1.3535
1.4051
1.4824
1.5469
1.6113
1.65
1.65
1.6113
1.5727
1.534
1.4953
1.4437
1.3922
1.3406
1.2891
1.2375
1.1988
1.1859
1.1859
1.1859
1.1988
1.2117
1.1988
1.1988
1.1859
1.1859
1.1859
1.1988
1.2117
1.2246
1.2246
1.2246
1.1988
1.1988
1.1988
1.2117
1.2117
1.2246
1.2375
1.2246
1.2117
1.2117
1.2117
1.2117
1.2246
1.2375
1.2375
1.2375
1.2375
1.2246
1.2117
1.2246
1.2246
1.2375
1.2504
1.2633
1.2504
1.2375
1.2246
1.2246
1.2375
1.2504
1.2633
1.2633
1.2504
1.2633
1.2375
1.2375
1.2504
1.2633
1.2762
1.2762
1.2891
1.2762
1.2633
1.2633
1.2633
1.2762
1.2891
1.302
1.302
1.302
1.2891
1.2891
1.2891
1.2891
1.3148
1.3277
1.3277
1.3277
1.3277
1.3277
1.3148
1.3277
1.3535
1.3535
1.3664
1.3664
1.3664
1.3535
1.3535
1.3535
1.3664
1.3793
1.3922
1.4051
1.3922
1.3922
1.3793
1.3793
1.3793
1.3922
1.4051
1.4051
1.4051
1.3922
1.3793
1.3793
1.3664
1.3793
1.3793
1.3793
1.3664
1.3535
1.3406
1.3148
1.3148
1.3148
1.3277
1.3148
1.3148
1.302
1.2762
1.2633
1.2504
1.2504
1.2504
1.2504
1.2504
1.2504
1.2246
1.2117
1.1988
1.1988
1.1988
1.2117
1.2117
1.2117
1.2117
1.1988
1.1859
1.173
1.1859
1.1859
1.1988
1.1988
1.1988
1.1859
1.173
1.173
1.173
1.173
1.1859
1.1988
1.1988
1.1988
1.1859
1.1602
1.173
1.1859
1.1859
1.1988
1.1988
1.1988
1.1859
1.173
1.173
1.173
1.1859
1.1988
1.1988
1.1988
1.1859
1.173
1.173
1.173
1.1859
1.1988
1.2117
1.1988
1.1988
1.1859
1.1859
1.173
1.1859
1.1988
1.1988
1.1988
1.1988
1.1859
1.1859
1.173
1.173
1.1988
1.1988
1.1988
1.1988
1.1859
1.1859
1.173
1.173
1.1859
1.1988
1.2117
1.1988
1.1988
1.1859
1.173
1.1859
1.1859
1.1988
1.2117
1.2117
1.1988
1.1859
1.173
1.173
1.173
1.1859
1.1988
1.1988
1.1988
1.1859
1.173
1.173
1.173
1.1859
1.1988
1.1988
1.1988
1.1988
1.1859
1.173
1.1602
1.1602
1.173
1.1859
1.1988
1.1859
1.1859
1.1602
1.1602
1.1602
1.173
1.1859
1.1859
1.1859
1.1859
1.173
1.1602
1.1602
1.173
1.173
1.1859
1.1859
1.1859
1.173
1.173
1.1602
1.1602
1.173
1.1859
1.1988
1.1988
1.1859
1.173
1.173
1.173
1.1859
1.1988
1.2117
1.2117
1.2117
1.1988
1.1859
1.1859
1.1988
1.2117
1.2246
1.2246
1.2246
1.2117
1.2117
1.2117
1.2117
1.2246
1.2375
1.2375
1.2375
1.2246
1.2246
1.2117
1.2117
1.2246
1.2246
1.2246
1.2375
1.2246
1.2117
1.1859
1.1859
1.1859
1.1859
1.1988
1.1988
1.1859
1.173
1.1602
1.1602
1.1602
1.1602
1.173
1.1859
1.173
1.173
1.1602
1.1473
1.1473
1.1473
1.1602
1.1602
1.1602
1.1602
1.1473
1.1344
1.1344
1.1344
1.1473
1.1602
1.1602
1.1602
1.1602
1.1473
1.1344
1.1473
1.1473
1.1602
1.1602
1.1602
1.1602
1.1473
1.1344
1.1215
1.1344
1.1473
1.1602
1.173
1.173
1.173
1.1859
1.1988
1.2375
1.2891
1.3535
1.418
1.4695
1.5211
1.5598
1.5727
1.5727
1.5598
1.534
1.4953
1.4309
1.3793
1.3148
1.2504
1.2117
1.173
1.173
1.173
1.1602
1.1602
1.1602
1.1473
1.1473
1.1473
1.1473
1.173
1.173
1.173
1.173
1.1602
1.1473
1.1473
1.1473
1.1602
1.173
1.1859
1.173
1.173
1.1602
1.1602
1.1602
1.1602
1.173
1.1859
1.1859
1.173
1.1602
1.1473
1.1473
1.1602
1.1859
1.1859
1.1859
1.1859
1.173
1.1602
1.1602
1.173
1.1859
1.1988
1.1988
1.1988
1.1988
1.1859
1.1859
1.1859
1.1988
1.1988
1.2117
1.2117
1.1988
1.1988
1.1988
1.1988
1.1988
1.2117
1.2246
1.2375
1.2246
1.2117
1.2246
1.2117
1.2246
1.2375
1.2504
1.2504
1.2633
1.2504
1.2504
1.2375
1.2504
1.2633
1.2762
1.2891
1.302
1.2891
1.2762
1.2762
1.2762
1.2891
1.302
1.3148
1.3148
1.3148
1.302
1.302
1.302
1.302
1.3148
1.3277
1.3406
1.3406
1.3277
1.3148
1.302
1.3148
1.3148
1.3148
1.3277
1.3277
1.302
1.2891
1.2762
1.2633
1.2762
1.2633
1.2762
1.2762
1.2633
1.2246
1.2117
1.1988
1.1988
1.1988
1.1988
1.1988
1.1988
1.173
1.1602
1.1602
1.1473
1.1473
1.1602
1.1602
1.1602
1.1473
1.1344
1.1215
1.1215
1.1215
1.1215
1.1344
1.1344
1.1344
1.1215
1.1086
1.1086
1.0957
1.1086
1.1215
1.1344
1.1344
1.1215
1.1086
1.0957
1.0957
1.1086
1.1215
1.1344
1.1344
1.1215
1.1086
1.1086
1.1086
1.1086
1.1215
1.1215
1.1344
1.1344
1.1215
1.1086
1.1086
1.0957
1.1086
1.1215
1.1344
1.1344
1.1215
1.1215
1.1086
1.1086
1.1086
1.1215
1.1344
1.1344
1.1344
1.1215
1.1086
1.1086
1.1086
1.1215
1.1344
1.1344
1.1344
1.1215
1.1215
1.1086
1.1086
1.1215
1.1344
1.1344
1.1473
1.1344
1.1215
1.1086
1.1086
1.1086
1.1215
1.1344
1.1344
1.1215
1.1086
1.1086
1.1086
1.0957
1.1086
1.1215
1.1344
1.1215
1.1215
1.1086
1.0957
1.0957
1.0957
1.1086
1.1215
1.1344
1.1215
1.1086
1.0957
1.0957
1.0828
1.1086
1.1086
1.1215
1.1215
1.1215
1.0957
1.0828
1.0828
1.0957
1.1086
1.1215
1.1215
1.1086
1.0957
1.0828
1.0828
1.0957
1.1086
1.1086
1.1215
1.1215
1.1215
1.1086
1.1086
1.0957
1.1086
1.1215
1.1344
1.1344
1.1344
1.1215
1.1086
1.1215
1.1344
1.1473
1.1602
1.1602
1.1602
1.1473
1.1344
1.1344
1.1473
1.1602
1.173
1.173
1.173
1.1602
1.1473
1.1473
1.1344
1.1473
1.1473
1.1473
1.1473
1.1344
1.1086
1.1086
1.1086
1.1086
1.1086
1.1086
1.1215
1.1086
1.0957
1.0828
1.0828
1.0828
1.0828
1.1086
1.1086
1.0957
1.0957
1.0828
1.0699
1.0828
1.0828
1.0957
1.0957
1.0957
1.0957
1.0828
1.0699
1.0699
1.0699
1.0828
1.0957
1.0957
1.0957
1.0828
1.0699
1.057
1.0699
1.0828
1.0828
1.0957
1.0957
1.0828
1.0699
1.0699
1.0699
1.0699
1.0828
1.1086
1.1086
1.1215
1.1344
1.1473
1.1859
1.2246
1.302
1.3535
1.418
1.4695
1.4824
1.4695
1.4437
1.418
1.3793
1.3406
1.302
1.2504
1.1988
1.1473
1.1086
1.0957
1.0828
1.0828
1.0828
1.0957
1.0828
1.0828
1.0699
1.0699
1.0699
1.0828
1.0828
1.0957
1.0957
1.0828
1.0828
1.0828
1.0828
1.0957
1.0957
1.1086
1.1086
1.1086
1.0957
1.0828
1.0828
1.0957
1.1086
1.1215
1.1215
1.1215
1.1086
1.1086
1.0957
1.1086
1.1086
1.1215
1.1344
1.1344
1.1215
1.1086
1.1086
1.1086
1.1086
1.1344
1.1473
1.1473
1.1344
1.1344
1.1215
1.1215
1.1344
1.1344
1.1473
1.1602
1.1602
1.1602
1.1473
1.1473
1.1473
1.1602
1.173
1.1859
1.1859
1.173
1.1602
1.1602
1.173
1.173
1.1859
1.1988
1.2117
1.1988
1.1988
1.1859
1.1859
1.1988
1.2246
1.2246
1.2375
1.2504
1.2375
1.2246
1.2246
1.2246
1.2375
1.2504
1.2633
1.2633
1.2633
1.2504
1.2375
1.2375
1.2504
1.2762
1.2762
1.2891
1.2891
1.2762
1.2633
1.2504
1.2633
1.2633
1.2633
1.2633
1.2504
1.2375
1.2246
1.2117
1.1988
1.1988
1.2117
1.1988
1.1988
1.1859
1.1602
1.1473
1.1344
1.1344
1.1473
1.1344
1.1473
1.1344
1.1215
1.0957
1.0957
1.0957
1.0957
1.1086
1.1086
1.1086
1.0957
1.0828
1.0699
1.0699
1.0699
1.0828
1.0828
1.0957
1.0828
1.0828
1.0699
1.057
1.0699
1.0699
1.0828
1.0828
1.0828
1.0828
1.0699
1.057
1.057
1.0699
1.0828
1.0828
1.0957
1.0828
1.0699
1.0699
1.0699
1.0699
1.0699
1.0828
1.0957
1.0828
1.0828
1.057
1.057
1.057
1.0699
1.0828
1.0957
1.0957
1.0828
1.0828
1.0699
1.0699
1.0828
1.0957
1.0957
1.0957
1.0957
1.0828
1.0699
1.0699
1.0828
1.0828
1.0957
1.0957
1.0957
1.0828
1.0699
1.057
1.0699
1.0828
1.0828
1.0957
1.0957
1.0828
1.0699
1.0699
1.0699
1.0699
1.0828
1.0957
1.0957
1.0957
1.0828
1.0699
1.0699
1.0699
1.0699
1.0957
1.0957
1.0957
1.0828
1.0699
1.057
1.0699
1.0699
1.0828
1.0828
1.0828
1.0828
1.0699
1.057
1.0441
1.057
1.0699
1.0828
1.0957
1.0828
1.0828
1.057
1.0441
1.057
1.057
1.0828
1.0957
1.0828
1.0828
1.0699
1.0699
1.0699
1.0828
1.0957
1.1086
1.1086
1.1086
1.0957
1.1086
1.0957
1.0957
1.1086
1.1215
1.1344
1.1344
1.1215
1.1086
1.0957
1.1086
1.1215
1.1344
1.1344
1.1473
1.1473
1.1215
1.1086
1.1086
1.0957
1.1086
1.1215
1.1086
1.1086
1.0828
1.0699
1.0699
1.0699
1.0699
1.0828
1.0828
1.0699
1.0699
1.057
1.0441
1.0441
1.057
1.057
1.0699
1.057
1.0699
1.057
1.0441
1.0313
1.0441
1.0441
1.057
1.0699
1.057
1.0441
1.0441
1.0313
1.0313
1.0441
1.057
1.057
1.057
1.057
1.0441
1.0313
1.0313
1.0441
1.057
1.057
1.057
1.057
1.0441
1.0313
1.0313
1.0441
1.057
1.0828
1.0957
1.1215
1.1344
1.1602
1.1988
1.2504
1.3148
1.3793
1.4437
1.4824
1.4824
1.4437
1.4051
1.3664
1.3277
1.2762
1.2375
1.1859
1.1473
1.0957
1.057
1.0441
1.0313
1.0441
1.0441
1.057
1.057
1.057
1.0441
1.0313
1.0441
1.0441
1.0699
1.0699
1.0828
1.0699
1.0699
1.0441
1.057
1.057
1.057
1.0828
1.0828
1.0828
1.0699
1.057
1.057
1.057
1.0699
1.0828
1.0957
1.0957
1.0957
1.0828
1.0699
1.0699
1.0828
1.0957
1.0957
1.0957
1.0957
1.0957
1.0828
1.0828
1.0828
1.0957
1.1086
1.1086
1.1215
1.1086
1.0957
1.0957
1.0957
1.1086
1.1215
1.1215
1.1344
1.1215
1.1215
1.1086
1.1086
1.1086
1.1344
1.1473
1.1473
1.1473
1.1344
1.1344
1.1344
1.1344
1.1473
1.1602
1.173
1.173
1.173
1.173
1.1602
1.173
1.1859
1.1988
1.2117
1.2117
1.1988
1.1988
1.1988
1.1988
1.1988
1.2246
1.2375
1.2375
1.2375
1.2375
1.2246
1.2246
1.2117
1.2375
1.2375
1.2504
1.2504
1.2504
1.2246
1.2117
1.2117
1.2117
1.2117
1.2246
1.2246
1.2117
1.1859
1.1602
1.1602
1.1473
1.1602
1.1602
1.1602
1.1473
1.1344
1.1086
1.0957
1.0957
1.0957
1.0957
1.0957
1.0957
1.0828
1.0699
1.057
1.057
1.057
1.057
1.0699
1.057
1.057
1.0441
1.0313
1.0313
1.0184
1.0313
1.0441
1.057
1.0441
1.0441
1.0184
1.0184
1.0184
1.0313
1.0313
1.0313
1.0441
1.0313
1.0313
1.0184
1.0055
1.0184
1.0313
1.0313
1.0313
1.0441
1.0313
1.0184
1.0184
1.0313
1.0313
1.0441
1.057
1.057
1.0441
1.0313
1.0184
1.0184
1.0313
1.0441
1.0441
1.0441
1.0441
1.0313
1.0313
1.0184
1.0184
1.0441
1.0441
1.057
1.057
1.0313
1.0313
1.0313
1.0184
1.0313
1.0441
1.057
1.057
1.0441
1.0313
1.0184
1.0184
1.0313
1.0441
1.0441
1.0441
1.0441
1.0313
1.0184
1.0184
1.0184
1.0313
1.0441
1.0441
1.0441
1.0313
1.0184
1.0184
1.0184
1.0313
1.0441
1.0313
1.0441
1.0313
1.0184
1.0184
1.0184
1.0184
1.0313
1.0313
1.0441
1.0313
1.0184
1.0184
1.0055
1.0055
1.0184
1.0313
1.0441
1.0441
1.0313
1.0313
1.0184
1.0184
1.0313
1.0313
1.0441
1.057
1.0441
1.0313
1.0313
1.0313
1.0313
1.0441
1.057
1.0699
1.0699
1.057
1.057
1.057
1.0441
1.0699
1.0828
1.0828
1.0828
1.0828
1.0699
1.057
1.0699
1.0699
1.0828
1.0828
1.0957
1.0828
1.0699
1.057
1.0441
1.0441
1.0441
1.057
1.057
1.0441
1.0313
1.0184
1.0055
1.0055
1.0184
1.0184
1.0184
1.0313
1.0184
1.0055
0.9926
0.9926
0.9926
1.0055
1.0184
1.0184
1.0184
1.0055
0.9926
0.9926
0.9926
1.0055
1.0184
1.0184
1.0055
1.0055
0.9926
0.9797
0.9797
0.9926
1.0055
1.0184
1.0184
1.0055
0.9926
0.9797
0.9797
0.9926
1.0055
1.0055
1.0184
1.0055
0.9926
1.0055
0.9926
1.0055
1.0313
1.0699
1.1086
1.1344
1.1859
1.2246
1.2762
1.3406
1.3922
1.4437
1.4695
1.4566
1.4309
1.3664
1.3148
1.2375
1.1859
1.1473
1.0957
1.0699
1.0441
1.0184
0.9926
0.9926
0.9926
0.9926
1.0055
1.0184
1.0184
1.0055
1.0055
1.0055
0.9926
1.0055
1.0184
1.0313
1.0441
1.0313
1.0184
1.0184
1.0184
1.0184
1.0184
1.0313
1.0313
1.0313
1.0313
1.0184
1.0184
1.0184
1.0313
1.0441
1.057
1.057
1.0441
1.0441
1.0313
1.0313
1.0313
1.0441
1.057
1.0699
1.057
1.057
1.0441
1.0441
1.0441
1.0441
1.057
1.0828
1.0699
1.0699
1.057
1.057
1.0699
1.057
1.0828
1.0828
1.0957
1.0828
1.0828
1.0828
1.0699
1.0828
1.0957
1.1215
1.1215
1.1215
1.1086
1.1086
1.1086
1.1086
1.1215
1.1344
1.1473
1.1473
1.1473
1.1473
1.1344
1.1344
1.1473
1.1602
1.173
1.1859
1.1859
1.173
1.173
1.1602
1.1859
1.1859
1.1988
1.1988
1.2117
1.1988
1.1859
1.1859
1.1859
1.1859
1.1988
1.1988
1.2117
1.2117
1.1859
1.173
1.1602
1.1602
1.1602
1.173
1.1602
1.1473
1.1344
1.1215
1.0957
1.0957
1.0957
1.0957
1.0957
1.0957
1.0699
1.0441
1.0313
1.0313
1.0313
1.0313
1.0441
1.0441
1.0313
1.0184
1.0055
0.9926
1.0055
1.0055
1.0184
1.0184
1.0184
1.0055
0.9926
0.9926
0.9926
0.9926
1.0055
1.0184
1.0055
0.9926
0.9926
0.9926
0.9797
0.9797
0.9926
1.0055
1.0184
1.0055
0.9926
0.9797
0.9797
0.9797
0.9926
1.0055
1.0055
1.0055
0.9926
0.9797
0.9797
0.9797
0.9797
1.0055
1.0055
1.0055
1.0055
0.9926
0.9797
0.9797
0.9926
1.0055
1.0055
1.0184
1.0184
1.0055
0.9926
0.9926
0.9926
0.9926
1.0184
1.0184
1.0313
1.0184
1.0055
0.9926
0.9926
1.0055
1.0184
1.0184
1.0184
1.0184
1.0055
0.9926
0.9926
0.9926
1.0184
1.0313
1.0313
1.0184
1.0184
1.0055
1.0055
1.0055
1.0184
1.0184
1.0313
1.0313
1.0184
1.0055
1.0055
1.0055
1.0055
1.0184
1.0184
1.0313
1.0184
1.0055
1.0055
0.9926
1.0055
1.0055
1.0184
1.0313
1.0184
1.0184
1.0055
0.9926
0.9926
1.0055
1.0184
1.0184
1.0184
1.0184
1.0055
1.0055
0.9926
1.0055
1.0055
1.0313
1.0313
1.0184
1.0184
1.0055
1.0055
1.0055
1.0055
1.0184
1.0313
1.0184
1.0184
1.0184
1.0055
1.0055
1.0184
1.0184
1.0441
1.0313
1.0441
1.0313
1.0184
1.0184
1.0313
1.0441
1.057
1.057
1.057
1.057
1.057
1.0441
1.0441
1.057
1.0699
1.0828
1.0828
1.0828
1.0699
1.057
1.057
1.0699
1.0699
1.0828
1.0828
1.0828
1.0699
1.057
1.0441
1.0441
1.0441
1.0441
1.057
1.0441
1.0313
1.0184
1.0184
1.0055
1.0055
1.0184
1.0184
1.0313
1.0184
1.0184
0.9926
0.9926
0.9926
1.0055
1.0184
1.0184
1.0184
1.0055
0.9926
0.9926
0.9926
0.9926
1.0055
1.0184
1.0184
1.0055
0.9926
0.9926
0.9926
0.9926
1.0055
1.0184
1.0184
1.0184
1.0055
0.9926
0.9926
0.9926
1.0055
1.0055
1.0184
1.0184
1.0055
1.0055
1.0055
1.0184
1.057
1.0828
1.1215
1.173
1.2117
1.2504
1.3148
1.3664
1.4309
1.4695
1.4824
1.4695
1.4309
1.3664
1.3148
1.2375
1.173
1.1344
1.0957
1.057
1.0313
1.0055
0.9926
0.9797
0.9797
0.9926
1.0055
1.0184
1.0184
1.0184
1.0055
1.0055
1.0055
1.0184
1.0313
1.0441
1.0441
1.0441
1.0313
1.0184
1.0184
1.0184
1.0313
1.0313
1.0441
1.057
1.0441
1.0313
1.0313
1.0313
1.0313
1.0441
1.057
1.057
1.057
1.0441
1.0313
1.0313
1.0313
1.0441
1.057
1.0699
1.0699
1.0699
1.057
1.0441
1.0441
1.057
1.0828
1.0828
1.0828
1.0828
1.0699
1.0699
1.0699
1.0699
1.0828
1.0957
1.1086
1.1086
1.0957
1.0957
1.0828
1.0957
1.1086
1.1215
1.1344
1.1344
1.1344
1.1215
1.1215
1.1215
1.1344
1.1473
1.173
1.173
1.173
1.1602
1.1473
1.1602
1.173
1.1859
1.1988
1.1988
1.1988
1.1988
1.1859
1.173
1.1859
1.1988
1.2117
1.2246
1.2246
1.2117
1.2117
1.1988
1.1988
1.1988
1.2117
1.2246
1.2246
1.2117
1.1988
1.173
1.173
1.173
1.173
1.1859
1.1859
1.173
1.1602
1.1344
1.1215
1.1086
1.1215
1.1215
1.1086
1.1086
1.0957
1.0828
1.057
1.057
1.057
1.057
1.0699
1.0699
1.057
1.0441
1.0184
1.0184
1.0184
1.0313
1.0313
1.0441
1.0441
1.0313
1.0184
1.0055
1.0055
1.0184
1.0184
1.0313
1.0313
1.0313
1.0184
1.0055
1.0055
1.0055
1.0184
1.0313
1.0313
1.0313
1.0184
1.0055
1.0055
1.0055
1.0184
1.0313
1.0313
1.0313
1.0184
1.0184
1.0184
1.0055
1.0184
1.0313
1.0441
1.0441
1.0441
1.0313
1.0184
1.0184
1.0184
1.0313
1.0441
1.0441
1.0441
1.0313
1.0184
1.0184
1.0184
1.0313
1.0313
1.0441
1.0441
1.0313
1.0184
1.0184
1.0184
1.0184
1.0313
1.0441
1.0441
1.0441
1.0313
1.0313
1.0184
1.0184
1.0313
1.0441
1.0441
1.0441
1.0313
1.0313
1.0184
1.0184
1.0313
1.0313
1.0441
1.0441
1.0441
1.0313
1.0184
1.0184
1.0184
1.0441
1.0441
1.0441
1.0441
1.0313
1.0184
1.0184
1.0184
1.0313
1.0441
1.0441
1.0441
1.0441
1.0313
1.0184
1.0184
1.0313
1.0313
1.0441
1.0441
1.0441
1.0313
1.0184
1.0055
1.0055
1.0313
1.0441
1.0441
1.0441
1.0441
1.0184
1.0184
1.0184
1.0313
1.0313
1.0441
1.0441
1.0313
1.0313
1.0184
1.0184
1.0313
1.0441
1.057
1.0699
1.057
1.0441
1.0313
1.0313
1.0441
1.057
1.0699
1.0828
1.0828
1.0699
1.0699
1.0699
1.0699
1.0828
1.0957
1.0957
1.0957
1.0957
1.0828
1.0828
1.0828
1.0828
1.0957
1.0957
1.1086
1.0957
1.0828
1.057
1.057
1.057
1.0699
1.0699
1.0699
1.0828
1.057
1.0441
1.0313
1.0313
1.0313
1.0313
1.057
1.0441
1.0441
1.0313
1.0184
1.0184
1.0313
1.0313
1.0441
1.0313
1.0441
1.0313
1.0184
1.0184
1.0055
1.0184
1.0184
1.0184
1.0313
1.0184
1.0184
1.0055
1.0055
1.0184
1.0184
1.0313
1.0313
1.0313
1.0184
1.0055
1.0055
1.0055
1.0184
1.0313
1.0313
1.0313
1.0313
1.0184
1.0184
1.0313
1.057
1.0828
1.1215
1.173
1.2117
1.2633
1.302
1.3664
1.418
1.4695
1.4953
1.4824
1.4437
1.3922
1.3277
1.2633
1.1988
1.1602
1.1215
1.0957
1.057
1.0313
1.0055
1.0055
1.0055
1.0055
1.0184
1.0313
1.0313
1.0313
1.0313
1.0184
1.0184
1.0313
1.0313
1.0441
1.057
1.0441
1.0441
1.0441
1.0313
1.0313
1.0441
1.057
1.057
1.057
1.057
1.0441
1.0441
1.0313
1.0441
1.057
1.0699
1.0699
1.0699
1.057
1.0441
1.0441
1.0441
1.057
1.0699
1.0828
1.0828
1.0699
1.057
1.057
1.057
1.0828
1.0828
1.0957
1.0957
1.0957
1.0828
1.0828
1.0828
1.0828
1.0957
1.1086
1.1215
1.1215
1.1086
1.0957
1.0957
1.1086
1.1215
1.1215
1.1473
1.1473
1.1344
1.1344
1.1215
1.1215
1.1473
1.1602
1.173
1.173
1.173
1.1602
1.1602
1.1602
1.173
1.1859
1.1988
1.2117
1.1988
1.1988
1.1859
1.1859
1.1988
1.2117
1.2246
1.2375
1.2375
1.2246
1.2117
1.2117
1.1988
1.2117
1.2246
1.2246
1.2246
1.2246
1.2117
1.1988
1.1988
1.1859
1.1859
1.1859
1.173
1.173
1.1602
1.1473
1.1215
1.1215
1.1215
1.1344
1.1215
1.1215
1.0957
1.0828
1.057
1.057
1.057
1.057
1.057
1.0699
1.057
1.0441
1.0313
1.0184
1.0184
1.0313
1.0313
1.0441
1.0313
1.0313
1.0184
1.0055
1.0055
1.0055
1.0184
1.0313
1.0184
1.0184
1.0055
0.9926
0.9926
1.0055
1.0055
1.0184
1.0313
1.0313
1.0184
1.0055
0.9926
0.9926
1.0055
1.0184
1.0313
1.0313
1.0184
1.0055
1.0055
0.9926
1.0055
1.0184
1.0441
1.0313
1.0313
1.0184
1.0055
1.0055
1.0055
1.0313
1.0313
1.0313
1.0313
1.0184
1.0184
1.0055
1.0055
1.0184
1.0313
1.0313
1.0441
1.0313
1.0313
1.0184
1.0184
1.0184
1.0313
1.0441
1.0441
1.0441
1.0313
1.0184
1.0184
1.0184
1.0184
1.0313
1.0441
1.0441
1.0313
1.0184
1.0184
1.0184
1.0184
1.0441
1.0441
1.0441
1.0441
1.0313
1.0184
1.0184
1.0184
1.0313
1.0441
1.0441
1.0441
1.0313
1.0184
1.0184
1.0184
1.0313
1.0313
1.0441
1.0441
1.0313
1.0313
1.0184
1.0184
1.0184
1.0441
1.0441
1.0441
1.0441
1.0313
1.0184
1.0184
1.0184
1.0313
1.0441
1.0441
1.0441
1.0313
1.0184
1.0184
1.0313
1.0313
1.0441
1.0441
1.057
1.057
1.0441
1.0313
1.0313
1.0313
1.0441
1.057
1.057
1.057
1.057
1.0441
1.0313
1.0441
1.057
1.0699
1.0828
1.0828
1.0699
1.0699
1.057
1.057
1.0699
1.0828
1.0828
1.0957
1.0957
1.0957
1.0828
1.0828
1.0957
1.1086
1.1215
1.1215
1.1215
1.1215
1.1086
1.1086
1.1086
1.1215
1.1344
1.1344
1.1473
1.1344
1.1215
1.1086
1.0957
1.1086
1.1215
1.1215
1.1215
1.1086
1.0957
1.0828
1.0828
1.0828
1.0828
1.0957
1.1086
1.0957
1.0957
1.0699
1.057
1.0699
1.0699
1.0828
1.0957
1.0957
1.0957
1.0699
1.0699
1.0699
1.0699
1.0828
1.0957
1.0957
1.0828
1.0957
1.0828
1.0828
1.0828
1.0957
1.1086
1.1086
1.1215
1.1086
1.0957
1.0957
1.0957
1.0957
1.1215
1.1215
1.1215
1.1215
1.1086
1.0957
1.0957
1.1086
1.1344
1.1602
1.1859
1.1988
1.2246
1.2633
1.302
1.3664
1.4437
1.5082
1.5598
1.5984
1.5984
1.5598
1.5082
1.4566
1.418
1.3664
1.3277
1.2762
1.2246
1.1859
1.1602
1.1473
1.1473
1.1473
1.1602
1.173
1.1859
1.173
1.1602
1.1602
1.1602
1.173
1.1859
1.1988
1.2117
1.2117
1.1859
1.1859
1.1859
1.1988
1.2117
1.2246
1.2246
1.2246
1.2246
1.2117
1.2117
1.2117
1.2375
1.2375
1.2504
1.2504
1.2504
1.2375
1.2246
1.2375
1.2504
1.2633
1.2762
1.2762
1.2762
1.2762
1.2633
1.2633
1.2762
1.2891
1.302
1.3148
1.3148
1.302
1.302
1.302
1.302
1.3148
1.3277
1.3406
1.3535
1.3535
1.3406
1.3406
1.3406
1.3535
1.3664
1.3922
1.3922
1.3922
1.3922
1.3793
1.3793
1.3922
1.4051
1.418
1.4309
1.4437
1.4309
1.4437
1.4309
1.4437
1.4437
1.4695
1.4824
1.4824
1.4953
1.4824
1.4824
1.4953
1.4953
1.5082
1.5211
1.534
1.534
1.534
1.5211
1.5211
1.534
1.5469
1.5598
1.5727
1.5727
1.5469
1.5469
1.5469
1.5469
1.5469
1.5598
1.5598
1.5598
1.5598
1.534
1.534
1.5211
1.5211
1.5211
1.534
1.5211
1.5211
1.5082
1.4824
1.4824
1.4695
1.4824
1.4953
1.4953
1.4953
1.4953
1.4695
1.4695
1.4695
1.4695
1.4824
1.4824
1.4824
1.4824
1.4695
1.4695
1.4695
1.4695
1.4824
1.4953
1.5082
1.5082
1.4953
1.4824
1.4824
1.4824
1.4953
1.5082
1.5211
1.5211
1.5211
1.5082
1.5082
1.5082
1.5082
1.534
1.5469
1.5469
1.5469
1.534
1.534
1.534
1.5469
1.5598
1.5727
1.5855
1.5727
1.5727
1.5598
1.5598
1.5598
1.5727
1.5984
1.5984
1.6113
1.5984
1.5984
1.5984
1.5984
1.5984
1.6113
1.6242
1.6371
1.6242
1.6242
1.6113
1.6113
1.6242
1.6242
1.6371
1.65
1.65
1.65
1.6371
1.6371
1.6242
1.65
1.6629
1.6758
1.6758
1.6758
1.6758
1.6629
1.6629
1.65
1.6887
1.6887
1.7016
1.6887
1.6887
1.6887
1.6758
1.6887
1.7016
1.7145
1.7145
1.7273
1.7145
1.7016
1.7016
1.7016
1.7145
1.7145
1.7273
1.7402
1.7273
1.7145
1.7145
1.7145
1.7145
1.7402
1.7531
1.7531
1.766
1.7531
1.7402
1.7402
1.7402
1.7531
1.766
1.7789
1.7789
1.7789
1.766
1.7531
1.7531
1.766
1.7789
1.7918
1.8047
1.7918
1.7918
1.7789
1.7789
1.7789
1.7918
1.8047
1.8176
1.8176
1.8047
1.7918
1.7918
1.7918
1.8047
1.8176
1.8305
1.8305
1.8305
1.8176
1.8047
1.8047
1.8176
1.8176
1.8434
1.8563
1.8563
1.8434
1.8305
1.8434
1.8563
1.8563
1.8691
1.882
1.8949
1.882
1.8691
1.8691
1.882
1.882
1.9078
1.9078
1.9207
1.9207
1.9207
1.9078
1.9078
1.9207
1.9336
1.9336
1.9594
1.9465
1.9465
1.9336
1.9207
1.9336
1.9336
1.9336
1.9336
1.9465
1.9336
1.9207
1.9078
1.8949
1.8949
1.9078
1.9078
1.9207
1.9078
1.8949
1.8949
1.882
1.882
1.8949
1.9078
1.9078
1.9078
1.8949
1.882
1.882
1.882
1.8949
1.9078
1.9078
1.9078
1.9078
1.8949
1.882
1.882
1.8949
1.8949
1.9078
1.9078
1.9207
1.9078
1.8949
1.882
1.882
1.8949
1.9078
1.9207
1.9078
1.9078
1.8949
1.8949
1.882
1.8949
1.9078
1.9207
1.9336
1.9336
1.9465
1.9594
1.9852
2.0367
2.1012
2.1527
2.2172
2.2816
2.3074
2.3203
2.3203
2.2816
2.2688
2.2301
2.1785
2.127
2.0754
2.0109
1.9594
1.9207
1.8949
1.9078
1.9078
1.9078
1.9078
1.8949
1.8949
1.882
1.882
1.8949
1.9078
1.9207
1.9207
1.9078
1.9078
1.8949
1.8949
1.8949
1.9078
1.9207
1.9207
1.9207
1.9078
1.8949
1.8949
1.8949
1.9078
1.9207
1.9336
1.9207
1.9078
1.9078
1.8949
1.8949
1.9078
1.9207
1.9336
1.9336
1.9207
1.9207
1.9078
1.8949
1.9207
1.9207
1.9336
1.9336
1.9336
1.9207
1.9207
1.9078
1.9207
1.9336
1.9336
1.9336
1.9465
1.9336
1.9336
1.9207
1.9207
1.9207
1.9465
1.9594
1.9594
1.9465
1.9465
1.9336
1.9336
1.9465
1.9594
1.9723
1.9723
1.9852
1.9723
1.9594
1.9594
1.9723
1.9723
1.998
1.998
1.998
1.998
1.998
1.9852
1.9852
1.998
2.0109
2.0109
2.0238
2.0109
2.0109
1.998
1.9852
1.9852
2.0109
2.0109
2.0238
2.0238
1.998
1.998
1.9852
1.9723
1.9852
1.9852
1.9852
1.9852
1.9723
1.9465
1.9336
1.9207
1.9078
1.9078
1.9207
1.9078
1.882
1.8691
1.8434
1.8305
1.8305
1.8176
1.8176
1.8176
1.8047
1.7918
1.766
1.7531
1.7531
1.7531
1.7531
1.7531
1.7531
1.7402
1.7145
1.7016
1.7016
1.7016
1.7016
1.7016
1.7145
1.7016
1.6887
1.6758
1.6629
1.6629
1.6629
1.6758
1.6629
1.6758
1.6629
1.65
1.6371
1.6371
1.6371
1.65
1.65
1.65
1.6371
1.6242
1.6113
1.6113
1.6113
1.6242
1.6371
1.6371
1.6371
1.6113
1.6113
1.5984
1.5855
1.5984
1.6113
1.6113
1.6113
1.5984
1.5855
1.5727
1.5727
1.5727
1.5855
1.5727
1.5855
1.5855
1.5727
1.5598
1.5469
1.5469
1.5598
1.5598
1.5598
1.5598
1.5598
1.534
1.5211
1.5211
1.534
1.534
1.5469
1.5469
1.534
1.5211
1.5082
1.4953
1.4953
1.5082
1.5211
1.5211
1.5082
1.4953
1.4824
1.4824
1.4824
1.4695
1.4824
1.4824
1.4824
1.4824
1.4695
1.4566
1.4566
1.4566
1.4695
1.4695
1.4695
1.4695
1.4566
1.4309
1.4309
1.4309
1.4309
1.4437
1.4566
1.4437
1.4309
1.418
1.4051
1.4051
1.4051
1.418
1.418
1.418
1.4051
1.4051
1.3793
1.3793
1.3922
1.3922
1.4051
1.3922
1.3922
1.3922
1.3793
1.3664
1.3664
1.3664
1.3793
1.3922
1.3793
1.3664
1.3535
1.3535
1.3406
1.3535
1.3664
1.3664
1.3664
1.3535
1.3406
1.3406
1.3406
1.3406
1.3406
1.3535
1.3535
1.3535
1.3664
1.3406
1.3277
1.3406
1.3406
1.3535
1.3664
1.3793
1.3664
1.3535
1.3535
1.3535
1.3664
1.3793
1.3922
1.4051
1.3922
1.3922
1.3793
1.3922
1.3922
1.4051
1.4309
1.4309
1.4309
1.4309
1.418
1.418
1.4051
1.4051
1.4309
1.4309
1.4309
1.418
1.4051
1.3922
1.3922
1.3922
1.4051
1.418
1.418
1.4051
1.3793
1.3793
1.3793
1.3664
1.3793
1.3922
1.4051
1.4051
1.3922
1.3793
1.3664
1.3793
1.3793
1.3793
1.3922
1.3793
1.3793
1.3793
1.3664
1.3664
1.3535
1.3664
1.3793
1.3922
1.3793
1.3664
1.3664
1.3535
1.3535
1.3535
1.3664
1.3793
1.3664
1.3535
1.3406
1.3277
1.3406
1.3406
1.3535
1.3664
1.3793
1.3922
1.4051
1.418
1.4437
1.4824
1.5469
1.6113
1.6758
1.7273
1.7531
1.766
1.7402
1.7145
1.6887
1.65
1.5984
1.5469
1.4824
1.4309
1.3664
1.3535
1.3277
1.3277
1.3277
1.3406
1.3406
1.3148
1.3148
1.3148
1.3148
1.3148
1.3277
1.3406
1.3277
1.3277
1.3148
1.302
1.302
1.302
1.3277
1.3277
1.3277
1.3277
1.302
1.302
1.2891
1.2891
1.302
1.3148
1.3148
1.3148
1.302
1.2891
1.2891
1.302
1.302
1.302
1.3148
1.3148
1.3148
1.302
1.2891
1.2891
1.2891
1.3148
1.3148
1.3148
1.3148
1.302
1.2891
1.2891
1.2891
1.302
1.3148
1.3148
1.3148
1.3148
1.302
1.2891
1.2891
1.302
1.302
1.3277
1.3277
1.3148
1.3148
1.302
1.302
1.3148
1.3148
1.3277
1.3406
1.3277
1.3277
1.3277
1.3277
1.3148
1.3406
1.3406
1.3535
1.3664
1.3406
1.3277
1.3277
1.3406
1.3406
1.3535
1.3664
1.3664
1.3664
1.3664
1.3535
1.3406
1.3535
1.3664
1.3793
1.3793
1.3664
1.3664
1.3406
1.3277
1.3277
1.3406
1.3535
1.3535
1.3406
1.3277
1.302
1.2891
1.2762
1.2762
1.2762
1.2762
1.2762
1.2504
1.2375
1.2117
1.1988
1.1988
1.1988
1.1988
1.1988
1.1859
1.173
1.1473
1.1344
1.1344
1.1344
1.1344
1.1473
1.1473
1.1215
1.1086
1.0957
1.0828
1.0957
1.1086
1.1086
1.1086
1.0957
1.0828
1.0699
1.0699
1.0699
1.0828
1.0957
1.0957
1.0957
1.0828
1.0699
1.057
1.057
1.057
1.0699
1.0828
1.0828
1.0699
1.057
1.0441
1.0441
1.0441
1.057
1.0699
1.0699
1.0699
1.057
1.057
1.0313
1.0441
1.0441
1.057
1.0699
1.0699
1.057
1.0441
1.0313
1.0313
1.0313
1.0441
1.0441
1.057
1.0441
1.0313
1.0313
1.0184
1.0184
1.0313
1.0441
1.0441
1.0441
1.0313
1.0184
1.0184
1.0055
1.0184
1.0184
1.0313
1.0313
1.0184
1.0055
0.9926
0.9926
0.9926
0.9926
1.0184
1.0184
1.0184
0.9926
0.9926
0.9797
0.9797
0.9926
1.0055
1.0055
1.0055
0.9926
0.9797
0.9668
0.9668
0.9668
0.9797
0.9926
0.9926
0.9797
0.9797
0.9668
0.9539
0.9668
0.9668
0.9797
0.9797
0.9797
0.9668
0.9539
0.9539
0.9539
0.9539
0.9668
0.9668
0.9668
0.9668
0.941
0.9281
0.9281
0.9281
0.941
0.9539
0.9539
0.941
0.941
0.941
0.9281
0.9281
0.941
0.941
0.9539
0.9668
0.941
0.941
0.941
0.9281
0.941
0.9539
0.9668
0.9797
0.9668
0.9539
0.9539
0.9539
0.9539
0.9668
0.9797
0.9797
0.9797
0.9668
0.9539
0.9539
0.9539
0.9668
0.9797
0.9668
0.9668
0.9539
0.941
0.9281
0.9281
0.9281
0.9281
0.9281
0.9281
0.9152
0.9023
0.8895
0.8766
0.8766
0.8895
0.8895
0.8895
0.8766
0.8766
0.8637
0.8508
0.8508
0.8637
0.8637
0.8766
0.8766
0.8637
0.8508
0.8379
0.8379
0.8508
0.8508
0.8637
0.8637
0.8508
0.8379
0.825
0.825
0.825
0.8379
0.8508
0.8508
0.8508
0.8379
0.825
0.8121
0.825
0.825
0.825
0.8379
0.8379
0.8379
0.825
0.825
0.825
0.8508
0.8637
0.9023
0.941
0.9797
1.0313
1.0699
1.1215
1.173
1.2117
1.2117
1.2117
1.173
1.1215
1.057
1.0055
0.9539
0.9152
0.8895
0.8637
0.8379
0.825
0.7992
0.7992
0.7863
0.7863
0.7992
0.8121
0.8121
0.8121
0.8121
0.7863
0.7863
0.7863
0.7992
0.8121
0.825
0.825
0.8121
0.8121
0.7992
0.7992
0.7992
0.8121
0.825
0.825
0.825
0.8121
0.7992
0.7992
0.7992
0.7992
0.8121
0.825
0.825
0.825
0.8121
0.7992
0.7992
0.8121
0.8121
0.8379
0.8379
0.825
0.825
0.8121
0.7992
0.8121
0.825
0.825
0.8508
0.8379
0.825
0.825
0.825
0.8121
0.8379
0.8379
0.8508
0.8508
0.8379
0.8379
0.825
0.8379
0.825
0.8508
0.8508
0.8637
0.8637
0.8508
0.8508
0.8508
0.8637
0.8637
0.8895
0.8895
0.8895
0.8895
0.8766
0.8766
0.8766
0.8895
0.9023
0.9152
0.9152
0.9152
0.9023
0.8895
0.8895
0.9023
0.9152
0.9281
0.9281
0.9281
0.9152
0.9152
0.9023
0.9023
0.9152
0.9281
0.9281
0.9281
0.9152
0.9023
0.8895
0.8766
0.8766
0.8895
0.8895
0.8895
0.8637
0.8508
0.825
0.8121
0.8121
0.8121
0.8121
0.8121
0.7992
0.7863
0.7605
0.7477
0.7477
0.7477
0.7477
0.7477
0.7477
0.7348
0.7219
0.709
0.709
0.709
0.7219
0.7219
0.7219
0.7219
0.709
0.6961
0.6832
0.6961
0.6961
0.709
0.709
0.709
0.709
0.6832
0.6832
0.6832
0.6961
0.6961
0.709
0.709
0.709
0.6961
0.6832
0.6832
0.6832
0.6961
0.6961
0.709
0.709
0.6961
0.6832
0.6832
0.6832
0.6832
0.6961
0.709
0.709
0.709
0.6832
0.6832
0.6832
0.6832
0.6961
0.709
0.709
0.709
0.6961
0.6961
0.6703
0.6832
0.6961
0.6961
0.709
0.709
0.6961
0.6832
0.6703
0.6703
0.6703
0.6961
0.6961
0.6961
0.6961
0.6703
0.6703
0.6703
0.6703
0.6832
0.6961
0.6961
0.6961
0.6832
0.6703
0.6574
0.6703
0.6703
0.6832
0.6961
0.6832
0.6703
0.6703
0.6574
0.6574
0.6574
0.6703
0.6703
0.6832
0.6832
0.6574
0.6574
0.6574
0.6574
0.6703
0.6832
0.6703
0.6703
0.6703
0.6574
0.6445
0.6445
0.6445
0.6703
0.6703
0.6703
0.6574
0.6445
0.6445
0.6445
0.6445
0.6574
0.6574
0.6703
0.6703
0.6574
0.6445
0.6445
0.6445
0.6574
0.6703
0.6832
0.6703
0.6703
0.6574
0.6574
0.6574
0.6703
0.6832
0.6961
0.6961
0.6832
0.6832
0.6703
0.6703
0.6832
0.6961
0.709
0.709
0.709
0.6961
0.6961
0.6961
0.6961
0.6961
0.709
0.7219
0.709
0.6961
0.6832
0.6703
0.6703
0.6703
0.6703
0.6832
0.6703
0.6703
0.6574
0.6445
0.6316
0.6316
0.6445
0.6445
0.6574
0.6574
0.6445
0.6316
0.6187
0.6187
0.6316
0.6445
0.6445
0.6445
0.6445
0.6316
0.6187
0.6187
0.6187
0.6316
0.6445
0.6445
0.6316
0.6187
0.6059
0.6059
0.6059
0.6187
0.6316
0.6316
0.6316
0.6187
0.6187
0.6059
0.6059
0.6059
0.6187
0.6316
0.6187
0.6187
0.6059
0.6059
0.6059
0.6187
0.6445
0.6703
0.709
0.7219
0.7734
0.8121
0.8637
0.9281
0.9926
1.0313
1.057
1.0441
1.0055
0.9539
0.9023
0.8379
0.7863
0.7477
0.7219
0.6832
0.6574
0.6316
0.6059
0.593
0.593
0.6059
0.6187
0.6187
0.6187
0.6187
0.6059
0.6059
0.6059
0.6059
0.6316
0.6316
0.6445
0.6445
0.6316
0.6187
0.6187
0.6187
0.6187
0.6445
0.6445
0.6445
0.6316
0.6187
0.6187
0.6316
0.6316
0.6445
0.6574
0.6445
0.6445
0.6316
0.6316
0.6187
0.6316
0.6445
0.6574
0.6574
0.6574
0.6445
0.6445
0.6445
0.6445
0.6574
0.6703
0.6703
0.6703
0.6574
0.6574
0.6445
0.6574
0.6574
0.6832
0.6832
0.6961
0.6832
0.6703
0.6703
0.6703
0.6832
0.6961
0.6961
0.709
0.709
0.6961
0.6961
0.6961
0.6961
0.709
0.7219
0.7348
0.7477
0.7348
0.7219
0.7219
0.7219
0.7348
0.7605
0.7605
0.7734
0.7605
0.7605
0.7477
0.7477
0.7605
0.7734
0.7863
0.7863
0.7863
0.7863
0.7734
0.7734
0.7734
0.7863
0.7992
0.7992
0.7863
0.7863
0.7605
0.7605
0.7477
0.7477
0.7605
0.7605
0.7605
0.7477
0.7219
0.709
0.6961
0.6961
0.6961
0.709
0.6961
0.6832
0.6574
0.6445
0.6316
0.6316
0.6445
0.6445
0.6445
0.6316
0.6187
0.6059
0.593
0.6059
0.6059
0.6059
0.6059
0.6059
0.6059
0.593
0.5801
0.5672
0.5801
0.5801
0.593
0.593
0.593
0.593
0.5801
0.5672
0.5801
0.5801
0.593
0.593
0.593
0.593
0.5801
0.5801
0.5672
0.5801
0.593
0.593
0.6059
0.593
0.593
0.5672
0.5801
0.5801
0.5801
0.593
0.593
0.6059
0.593
0.5801
0.5801
0.5801
0.593
0.593
0.6059
0.6059
0.6059
0.593
0.5801
0.5801
0.593
0.593
0.6059
0.6187
0.6059
0.593
0.5801
0.5801
0.5801
0.593
0.6059
0.6059
0.6059
0.6059
0.593
0.5801
0.5672
0.5801
0.593
0.6059
0.6059
0.593
0.5801
0.5801
0.5801
0.5801
0.593
0.6059
0.593
0.593
0.5801
0.5801
0.5672
0.5672
0.5801
0.593
0.593
0.593
0.593
0.5801
0.5672
0.5543
0.5672
0.5801
0.6059
0.593
0.593
0.5801
0.5672
0.5672
0.5672
0.5801
0.593
0.593
0.593
0.5801
0.5672
0.5543
0.5543
0.5801
0.5801
0.593
0.593
0.5801
0.5672
0.5672
0.5672
0.5672
0.5801
0.593
0.593
0.5801
0.5801
0.5672
0.5672
0.5543
0.5672
0.5801
0.593
0.593
0.5801
0.5801
0.5672
0.5672
0.5801
0.593
0.6059
0.6059
0.6059
0.593
0.593
0.5801
0.593
0.6059
0.6187
0.6316
0.6316
0.6187
0.6187
0.6187
0.6059
0.6187
0.6316
0.6445
0.6445
0.6445
0.6316
0.6187
0.6187
0.6187
0.6316
0.6316
0.6445
0.6316
0.6187
0.6059
0.593
0.593
0.6059
0.6059
0.6059
0.6059
0.593
0.5801
0.5672
0.5672
0.5672
0.5801
0.5801
0.5801
0.5801
0.5672
0.5543
0.5543
0.5543
0.5672
0.5801
0.593
0.5801
0.5672
0.5543
0.5414
0.5543
0.5672
0.5801
0.5801
0.5801
0.5801
0.5672
0.5414
0.5543
0.5543
0.5672
0.5801
0.5801
0.5801
0.5672
0.5543
0.5543
0.5543
0.5543
0.5672
0.5801
0.5801
0.5801
0.593
0.593
0.6187
0.6574
0.709
0.7605
0.825
0.8766
0.9281
0.9797
1.0055
1.0184
1.0055
0.9797
0.941
0.8766
0.8121
0.7477
0.6832
0.6445
0.6187
0.6059
0.593
0.5801
0.5672
0.5672
0.5543
0.5543
0.5672
0.5801
0.593
0.593
0.593
0.5801
0.5801
0.5801
0.5801
0.593
0.6059
0.6059
0.6059
0.593
0.593
0.5801
0.5801
0.593
0.6059
0.6187
0.6059
0.6187
0.6059
0.593
0.593
0.593
0.6059
0.6187
0.6187
0.6187
0.6187
0.593
0.593
0.6059
0.6187
0.6316
0.6316
0.6445
0.6316
0.6187
0.6187
0.6187
0.6316
0.6316
0.6445
0.6574
0.6445
0.6445
0.6316
0.6316
0.6445
0.6445
0.6703
0.6703
0.6703
0.6703
0.6574
0.6574
0.6574
0.6703
0.6832
0.6961
0.6961
0.6961
0.6961
0.6832
0.6832
0.6961
0.709
0.7219
0.7348
0.7348
0.7219
0.7219
0.7219
0.7219
0.7348
0.7477
0.7605
0.7605
0.7605
0.7477
0.7477
0.7477
0.7605
0.7734
0.7863
0.7734
0.7863
0.7734
0.7605
0.7605
0.7734
0.7605
0.7863
0.7734
0.7734
0.7477
0.7348
0.7219
0.7219
0.7348
0.7348
0.7348
0.7219
0.6961
0.6832
0.6703
0.6703
0.6574
0.6574
0.6703
0.6574
0.6445
0.6316
0.6187
0.6059
0.6059
0.6059
0.6187
0.6187
0.6187
0.593
0.593
0.5801
0.5801
0.593
0.593
0.593
0.593
0.5801
0.5801
0.5672
0.5672
0.5672
0.5801
0.593
0.593
0.593
0.5801
0.5672
0.5672
0.5672
0.5801
0.593
0.593
0.593
0.5801
0.5801
0.5543
0.5672
0.5672
0.5801
0.593
0.593
0.5801
0.5801
0.5672
0.5672
0.5801
0.5801
0.593
0.593
0.593
0.5801
0.5672
0.5672
0.5672
0.5801
0.593
0.6059
0.593
0.593
0.593
0.5801
0.5801
0.5801
0.593
0.6059
0.6059
0.6059
0.593
0.5801
0.5801
0.5801
0.593
0.6059
0.6059
0.6059
0.593
0.5801
0.5801
0.5801
0.593
0.593
0.6059
0.6059
0.6059
0.5801
0.5801
0.5801
0.5801
0.593
0.6059
0.6059
0.593
0.593
0.5801
0.5801
0.5801
0.5801
0.593
0.6059
0.593
0.593
0.5801
0.5672
0.5672
0.5801
0.593
0.593
0.593
0.593
0.5801
0.5672
0.5672
0.5801
0.593
0.593
0.6059
0.593
0.5801
0.5801
0.5801
0.5801
0.593
0.6059
0.6059
0.593
0.593
0.5801
0.5801
0.5801
0.5801
0.593
0.6059
0.6059
0.593
0.593
0.5672
0.5801
0.5672
0.593
0.6059
0.6059
0.6059
0.6059
0.593
0.593
0.593
0.6059
0.6187
0.6316
0.6316
0.6187
0.6187
0.6059
0.6187
0.6187
0.6445
0.6574
0.6445
0.6445
0.6445
0.6316
0.6316
0.6316
0.6445
0.6574
0.6574
0.6703
0.6574
0.6445
0.6445
0.6445
0.6445
0.6574
0.6574
0.6574
0.6445
0.6316
0.6187
0.6187
0.6187
0.6316
0.6316
0.6316
0.6187
0.6059
0.593
0.593
0.5801
0.593
0.6059
0.6059
0.6059
0.593
0.5801
0.5801
0.5801
0.5801
0.593
0.6059
0.6059
0.593
0.5801
0.5801
0.5801
0.5801
0.593
0.6059
0.6059
0.593
0.593
0.5801
0.5801
0.5801
0.593
0.6059
0.6059
0.6059
0.593
0.5801
0.5801
0.5801
0.5801
0.593
0.593
0.6059
0.6059
0.6059
0.6059
0.6316
0.6574
0.6961
0.7477
0.8121
0.8766
0.9152
0.9668
1.0184
1.0441
1.057
1.0441
1.0184
0.9668
0.9023
0.8379
0.7734
0.7219
0.6703
0.6574
0.6445
0.6187
0.6187
0.593
0.593
0.593
0.593
0.6059
0.6187
0.6316
0.6316
0.6187
0.6059
0.6059
0.6059
0.6187
0.6316
0.6445
0.6445
0.6316
0.6316
0.6187
0.6187
0.6187
0.6316
0.6574
0.6445
0.6574
0.6316
0.6316
0.6316
0.6316
0.6445
0.6445
0.6574
0.6574
0.6574
0.6445
0.6445
0.6445
0.6574
0.6703
0.6703
0.6832
0.6832
0.6574
0.6574
0.6574
0.6574
0.6703
0.6832
0.6961
0.6961
0.6832
0.6832
0.6703
0.6832
0.6961
0.709
0.709
0.7219
0.709
0.6961
0.709
0.6961
0.709
0.7219
0.7348
0.7477
0.7477
0.7348
0.7219
0.7348
0.7348
0.7477
0.7734
0.7734
0.7734
0.7734
0.7605
0.7605
0.7734
0.7734
0.7863
0.7992
0.8121
0.8121
0.7992
0.7992
0.7863
0.7992
0.8121
0.825
0.825
0.825
0.825
0.8121
0.8121
0.8121
0.8121
0.825
0.825
0.825
0.8121
0.7992
0.7863
0.7734
0.7734
0.7734
0.7863
0.7734
0.7605
0.7477
0.7219
0.7219
0.709
0.709
0.7219
0.709
0.709
0.6832
0.6703
0.6574
0.6574
0.6703
0.6703
0.6703
0.6703
0.6574
0.6445
0.6316
0.6316
0.6316
0.6316
0.6445
0.6445
0.6316
0.6316
0.6187
0.6187
0.6187
0.6316
0.6445
0.6445
0.6445
0.6316
0.6187
0.6187
0.6187
0.6187
0.6445
0.6445
0.6445
0.6445
0.6316
0.6187
0.6187
0.6187
0.6316
0.6445
0.6574
0.6445
0.6316
0.6187
0.6187
0.6187
0.6316
0.6445
0.6574
0.6574
0.6445
0.6316
0.6316
0.6316
0.6445
0.6445
0.6574
0.6574
0.6574
0.6445
0.6445
0.6445
0.6445
0.6574
0.6703
0.6703
0.6574
0.6574
0.6445
0.6316
0.6316
0.6574
0.6703
0.6703
0.6703
0.6574
0.6574
0.6445
0.6445
0.6445
0.6703
0.6703
0.6703
0.6703
0.6574
0.6445
0.6445
0.6445
0.6574
0.6703
0.6703
0.6703
0.6574
0.6574
0.6445
0.6445
0.6574
0.6574
0.6703
0.6703
0.6703
0.6574
0.6445
0.6445
0.6445
0.6574
0.6703
0.6703
0.6703
0.6574
0.6445
0.6445
0.6445
0.6574
0.6574
0.6703
0.6832
0.6703
0.6574
0.6445
0.6574
0.6445
0.6574
0.6703
0.6832
0.6703
0.6574
0.6574
0.6445
0.6574
0.6703
0.6832
0.6832
0.6832
0.6703
0.6574
0.6574
0.6574
0.6574
0.6703
0.6832
0.6832
0.6832
0.6574
0.6574
0.6574
0.6703
0.6703
0.6832
0.6832
0.6832
0.6703
0.6574
0.6574
0.6574
0.6703
0.6832
0.6832
0.6832
0.6832
0.6703
0.6703
0.6703
0.6832
0.6961
0.709
0.709
0.709
0.6961
0.6961
0.6832
0.6961
0.709
0.7219
0.7348
0.7219
0.7219
0.709
0.709
0.709
0.7219
0.7348
0.7477
0.7477
0.7477
0.7348
0.7219
0.7219
0.7348
0.7477
0.7477
0.7477
0.7348
0.7219
0.709
0.709
0.709
0.7219
0.7219
0.7219
0.7219
0.709
0.6961
0.6832
0.6703
0.6961
0.6961
0.6961
0.6961
0.6961
0.6832
0.6832
0.6703
0.6832
0.6961
0.6961
0.6961
0.6961
0.6832
0.6703
0.6703
0.6703
0.6832
0.6961
0.6961
0.6961
0.6832
0.6832
0.6703
0.6703
0.6832
0.6961
0.709
0.6961
0.6961
0.6832
0.6832
0.6703
0.6832
0.6832
0.6961
0.6961
0.6961
0.6961
0.709
0.709
0.7348
0.7605
0.8121
0.8637
0.9281
0.9668
1.0313
1.0828
1.1215
1.1473
1.1473
1.1344
1.0957
1.0441
0.9668
0.9023
0.8379
0.7992
0.7734
0.7605
0.7477
0.7219
0.709
0.709
0.6961
0.6961
0.7219
0.7219
0.7348
0.7348
0.7348
0.7219
0.7219
0.7219
0.7219
0.7348
0.7477
0.7477
0.7477
0.7348
0.7348
0.7219
0.7348
0.7477
0.7477
0.7605
0.7605
0.7477
0.7477
0.7477
0.7477
0.7477
0.7734
0.7734
0.7734
0.7863
0.7605
0.7605
0.7605
0.7605
0.7734
0.7992
0.7992
0.7863
0.7863
0.7734
0.7863
0.7863
0.7992
0.8121
0.825
0.825
0.8121
0.8121
0.8121
0.7992
0.8121
0.825
0.8379
0.8379
0.8379
0.8379
0.825
0.825
0.8379
0.8637
0.8637
0.8766
0.8766
0.8895
0.8637
0.8766
0.8766
0.8766
0.9023
0.9023
0.9152
0.9152
0.9023
0.9023
0.9152
0.9152
0.941
0.9539
0.9668
0.9539
0.9539
0.941
0.941
0.9539
0.9668
0.9797
0.9797
0.9797
0.9797
0.9797
0.9668
0.9668
0.9797
0.9926
0.9926
1.0055
0.9926
0.9797
0.9668
0.9539
0.9539
0.9668
0.9668
0.9668
0.9539
0.941
0.9152
0.9023
0.9023
0.9023
0.9023
0.9023
0.9023
0.8895
0.8766
0.8637
0.8508
0.8637
0.8637
0.8766
0.8637
0.8637
0.8508
0.8379
0.8379
0.8379
0.8508
0.8508
0.8508
0.8637
0.8508
0.825
0.825
0.825
0.8379
0.8637
0.8637
0.8637
0.8508
0.8508
0.8508
0.8508
0.8508
0.8637
0.8766
0.8766
0.8766
0.8637
0.8637
0.8508
0.8637
0.8766
0.8895
0.9023
0.8895
0.8895
0.8895
0.8766
0.8766
0.8895
0.9023
0.9152
0.9152
0.9152
0.9023
0.9023
0.8895
0.9023
0.9152
0.9281
0.9281
0.9281
0.9152
0.9152
0.9152
0.9152
0.9281
0.941
0.941
0.9539
0.941
0.9281
0.9152
0.9281
0.941
0.9539
0.9539
0.9539
0.9539
0.9539
0.941
0.941
0.941
0.9668
0.9797
0.9797
0.9797
0.9797
0.9668
0.9539
0.9668
0.9668
0.9797
0.9926
1.0055
0.9926
0.9797
0.9797
0.9797
0.9797
0.9926
1.0055
1.0313
1.0184
1.0055
1.0055
1.0055
1.0055
1.0055
1.0313
1.0313
1.0313
1.0184
1.0184
1.0184
1.0184
1.0313
1.0441
1.0441
1.057
1.0441
1.0313
1.0313
1.0313
1.0441
1.057
1.0699
1.0699
1.0699
1.0699
1.057
1.0441
1.057
1.0699
1.0828
1.0957
1.0957
1.0828
1.0699
1.0699
1.0699
1.0828
1.0957
1.0957
1.1086
1.1086
1.0957
1.0957
1.0957
1.0957
1.1086
1.1215
1.1344
1.1344
1.1344
1.1215
1.1215
1.1215
1.1344
1.1473
1.1602
1.1602
1.1473
1.1473
1.1473
1.1473
1.1602
1.173
1.1859
1.1988
1.1988
1.1859
1.1859
1.1859
1.1859
1.1988
1.2246
1.2246
1.2375
1.2246
1.2375
1.2246
1.2375
1.2504
1.2633
1.2762
1.2891
1.2762
1.2762
1.2633
1.2633
1.2891
1.302
1.3148
1.3148
1.3277
1.3148
1.302
1.2891
1.302
1.302
1.3148
1.3148
1.3148
1.3148
1.2891
1.2891
1.2762
1.2891
1.302
1.3148
1.3148
1.302
1.302
1.2891
1.2891
1.302
1.3148
1.3277
1.3277
1.3277
1.3277
1.3148
1.3148
1.3148
1.3277
1.3406
1.3535
1.3535
1.3535
1.3406
1.3406
1.3406
1.3535
1.3664
1.3793
1.3793
1.3793
1.3793
1.3664
1.3664
1.3664
1.3793
1.4051
1.418
1.4051
1.4051
1.3922
1.3922
1.4051
1.418
1.4437
1.4824
1.5082
1.534
1.5727
1.6113
1.6629
1.7402
1.8047
1.8691
1.8949
1.8949
1.8691
1.8305
1.7789
1.7273
1.7016
1.65
1.6242
1.5855
1.5598
1.534
1.5082
1.5082
1.5082
1.5211
1.534
1.534
1.534
1.534
1.534
1.534
1.5469
1.5598
1.5727
1.5855
1.5855
1.5855
1.5727
1.5598
1.5727
1.5855
1.5984
1.6113
1.6242
1.6242
1.6113
1.6113
1.6113
1.6113
1.6242
1.6371
1.65
1.65
1.65
1.6371
1.6371
1.65
1.65
1.6758
1.6887
1.6887
1.6887
1.6758
1.6887
1.6758
1.6887
1.7016
1.7145
1.7273
1.7273
1.7145
1.7145
1.7145
1.7273
1.7402
1.7531
1.766
1.766
1.766
1.766
1.7531
1.766
1.7789
1.7918
1.8047
1.8176
1.8047
1.8047
1.8047
1.8047
1.8176
1.8305
1.8434
1.8563
1.8563
1.8563
1.8563
1.8563
1.8691
1.8691
1.8949
1.9078
1.9078
1.9078
1.9078
1.8949
1.8949
1.9207
1.9336
1.9465
1.9465
1.9465
1.9465
1.9336
1.9465
1.9594
1.9594
1.9723
1.9723
1.9723
1.9723
1.9594
1.9594
1.9465
1.9594
1.9594
1.9723
1.9723
1.9594
1.9465
1.9207
1.9207
1.9207
1.9207
1.9207
1.9207
1.9078
1.8949
1.8691
1.8691
1.8691
1.8691
1.882
1.8691
1.8691
1.8563
1.8563
1.8434
1.8305
1.8434
1.8563
1.8563
1.8563
1.8563
1.8434
1.8305
1.8305
1.8305
1.8563
1.8563
1.8563
1.8563
1.8563
1.8434
1.8305
1.8305
1.8434
1.8563
1.8563
1.8691
1.8563
1.8563
1.8434
1.8434
1.8434
1.8563
1.8691
1.882
1.882
1.8691
1.8563
1.8563
1.8691
1.882
1.882
1.8949
1.8949
1.8949
1.882
1.8691
1.882
1.882
1.8949
1.9078
1.9078
1.8949
1.8949
1.882
1.882
1.882
1.8949
1.9078
1.9207
1.9207
1.9078
1.8949
1.8949
1.9078
1.9078
1.9207
1.9207
1.9336
1.9207
1.9078
1.9078
1.8949
1.9207
1.9207
1.9336
1.9465
1.9336
1.9207
1.9207
1.9078
1.9207
1.9207
1.9336
1.9465
1.9465
1.9336
1.9207
1.9207
1.9207
1.9207
1.9336
1.9465
1.9465
1.9465
1.9207
1.9207
1.9207
1.9207
1.9336
1.9336
1.9336
1.9465
1.9207
1.9078
1.9078
1.9207
1.9336
1.9465
1.9336
1.9465
1.9336
1.9207
1.9207
1.9207
1.9336
1.9336
1.9465
1.9465
1.9336
1.9336
1.9207
1.9207
1.9207
1.9336
1.9465
1.9594
1.9465
1.9336
1.9207
1.9207
1.9207
1.9336
1.9336
1.9465
1.9465
1.9336
1.9207
1.9207
1.9207
1.9336
1.9465
1.9594
1.9594
1.9594
1.9465
1.9336
1.9336
1.9465
1.9465
1.9723
1.9723
1.9723
1.9723
1.9594
1.9594
1.9594
1.9723
1.9723
1.9852
1.9852
1.9852
1.9723
1.9723
1.9594
1.9723
1.9852
1.998
1.9852
1.9852
1.9723
1.9594
1.9594
1.9465
1.9594
1.9594
1.9594
1.9465
1.9465
1.9207
1.9207
1.9078
1.9207
1.9207
1.9336
1.9336
1.9207
1.9078
1.8949
1.8949
1.8949
1.9078
1.9078
1.9207
1.9078
1.9078
1.8949
1.882
1.882
1.8949
1.9078
1.9078
1.9078
1.8949
1.8949
1.882
1.8691
1.882
1.882
1.9078
1.8949
1.8949
1.8949
1.8691
1.8691
1.8691
1.882
1.882
1.8949
1.882
1.882
1.8691
1.8563
1.8691
1.8949
1.9207
1.9465
1.9852
2.0109
2.0496
2.0883
2.1527
2.2043
2.2559
2.2816
2.2688
2.243
2.2043
2.1527
2.1012
2.0367
1.998
1.9723
1.9465
1.9078
1.882
1.8563
1.8563
1.8434
1.8563
1.8691
1.8691
1.8691
1.8691
1.8563
1.8305
1.8434
1.8434
1.8563
1.8691
1.8691
1.8691
1.8691
1.8563
1.8563
1.8563
1.8563
1.8691
1.8691
1.8691
1.8691
1.8563
1.8434
1.8434
1.8434
1.8563
1.8691
1.8691
1.8691
1.8563
1.8434
1.8434
1.8434
1.8563
1.8691
1.8691
1.8691
1.8691
1.8434
1.8434
1.8563
1.8563
1.8691
1.8691
1.8691
1.8691
1.8563
1.8563
1.8563
1.8563
1.8691
1.882
1.882
1.882
1.8691
1.8563
1.8563
1.8563
1.8691
1.882
1.882
1.8949
1.882
1.8691
1.8691
1.8691
1.882
1.8949
1.8949
1.9078
1.8949
1.8949
1.882
1.882
1.8949
1.9078
1.9207
1.9336
1.9207
1.9207
1.9078
1.9078
1.9078
1.9078
1.9207
1.9465
1.9465
1.9207
1.9078
1.9078
1.9207
1.9207
1.9207
1.9336
1.9336
1.9207
1.9207
1.8949
1.882
1.882
1.882
1.882
1.882
1.882
1.8563
1.8434
1.8176
1.8047
1.8176
1.8176
1.8176
1.8047
1.7918
1.766
1.7531
1.7402
1.7273
1.7402
1.7402
1.7402
1.7273
1.7145
1.6887
1.6887
1.6758
1.6887
1.6887
1.6887
1.6887
1.6758
1.6629
1.65
1.65
1.65
1.6629
1.6629
1.6629
1.65
1.65
1.6371
1.6371
1.6371
1.6371
1.65
1.65
1.65
1.6371
1.6242
1.6242
1.6242
1.6242
1.6371
1.6371
1.6371
1.6371
1.6242
1.6113
1.6113
1.6113
1.6242
1.6242
1.6242
1.6113
1.6113
1.5855
1.5855
1.5984
1.6113
1.6113
1.6113
1.6113
1.5984
1.5855
1.5727
1.5727
1.5855
1.5855
1.5984
1.5984
1.5855
1.5727
1.5727
1.5598
1.5598
1.5727
1.5727
1.5855
1.5727
1.5598
1.5469
1.534
1.534
1.534
1.5598
1.5598
1.5469
1.534
1.534
1.534
1.5211
1.5211
1.534
1.534
1.534
1.534
1.5211
1.5082
1.4953
1.5082
1.5082
1.5082
1.5211
1.5082
1.5082
1.4824
1.4824
1.4824
1.4824
1.4953
1.4953
1.4953
1.4824
1.4695
1.4566
1.4566
1.4566
1.4695
1.4824
1.4824
1.4695
1.4566
1.4437
1.4309
1.4309
1.4566
1.4566
1.4566
1.4566
1.4437
1.4309
1.4309
1.418
1.4309
1.4309
1.4437
1.4437
1.4309
1.418
1.418
1.4051
1.4051
1.4051
1.418
1.4309
1.418
1.4051
1.3922
1.3793
1.3922
1.3922
1.4051
1.4051
1.4051
1.3922
1.3793
1.3793
1.3793
1.3793
1.3922
1.4051
1.4051
1.4051
1.3922
1.3793
1.3664
1.3793
1.3922
1.4051
1.4051
1.4051
1.3922
1.3793
1.3793
1.3793
1.3793
1.3922
1.4051
1.4051
1.3922
1.3793
1.3664
1.3664
1.3664
1.3664
1.3664
1.3664
1.3664
1.3406
1.3277
1.3148
1.302
1.302
1.3148
1.3148
1.302
1.302
1.2891
1.2633
1.2633
1.2762
1.2762
1.2762
1.2891
1.2762
1.2633
1.2504
1.2375
1.2375
1.2504
1.2504
1.2504
1.2375
1.2375
1.2246
1.2117
1.2117
1.2117
1.2246
1.2375
1.2375
1.2246
1.2117
1.1988
1.1859
1.1988
1.1988
1.2117
1.1988
1.1988
1.1859
1.173
1.173
1.173
1.1859
1.1988
1.2117
1.2117
1.2246
1.2375
1.2633
1.302
1.3535
1.418
1.4824
1.5469
1.5855
1.5855
1.5727
1.5469
1.5211
1.4695
1.4309
1.3664
1.3148
1.2504
1.1988
1.1602
1.1473
1.1473
1.1473
1.1473
1.1473
1.1344
1.1215
1.1086
1.1086
1.1086
1.1215
1.1344
1.1344
1.1215
1.1215
1.1086
1.0957
1.1086
1.1086
1.1086
1.1215
1.1215
1.1086
1.0957
1.0828
1.0957
1.0957
1.1086
1.1215
1.1215
1.1086
1.0957
1.0828
1.0699
1.0828
1.0957
1.0957
1.1086
1.0957
1.0957
1.0828
1.0699
1.0699
1.0957
1.0957
1.0957
1.0957
1.0957
1.0828
1.0699
1.057
1.0699
1.0828
1.0957
1.1086
1.0957
1.0828
1.0699
1.0828
1.0828
1.0828
1.0957
1.0957
1.1086
1.0957
1.0828
1.0828
1.0828
1.0957
1.1086
1.1215
1.1086
1.1086
1.1086
1.0957
1.0957
1.1086
1.1215
1.1215
1.1344
1.1344
1.1215
1.1086
1.1086
1.1086
1.1215
1.1344
1.1473
1.1473
1.1344
1.1215
1.1086
1.1086
1.1215
1.1344
1.1473
1.1344
1.1344
1.1086
1.1086
1.0957
1.0957
1.1086
1.1086
1.1086
1.0957
1.0699
1.057
1.0441
1.0313
1.0313
1.0313
1.0441
1.0313
1.0055
0.9926
0.9668
0.9668
0.9668
0.9668
0.9539
0.9539
0.941
0.9281
0.9023
0.8895
0.8895
0.9023
0.9023
0.9023
0.9023
0.8895
0.8637
0.8637
0.8637
0.8637
0.8637
0.8766
0.8766
0.8637
0.8508
0.8379
0.8379
0.8379
0.8508
0.8508
0.8508
0.8508
0.8379
0.825
0.8121
0.825
0.8379
0.8379
0.8379
0.8508
0.8379
0.825
0.8121
0.8121
0.8121
0.825
0.8379
0.8379
0.825
0.8121
0.7992
0.7992
0.7992
0.8121
0.825
0.825
0.8121
0.8121
0.7992
0.7863
0.7863
0.7992
0.8121
0.8121
0.8121
0.7992
0.7863
0.7734
0.7734
0.7734
0.7863
0.7992
0.7992
0.7863
0.7734
0.7734
0.7734
0.7605
0.7863
0.7863
0.7863
0.7863
0.7734
0.7734
0.7605
0.7605
0.7605
0.7734
0.7734
0.7863
0.7734
0.7605
0.7477
0.7348
0.7348
0.7477
0.7605
0.7605
0.7605
0.7348
0.7348
0.7348
0.7348
0.7348
0.7477
0.7477
0.7477
0.7348
0.7219
0.7219
0.709
0.7219
0.7348
0.7348
0.7348
0.7348
0.7219
0.709
0.6961
0.709
0.709
0.7219
0.7219
0.709
0.709
0.6961
0.6961
0.6961
0.709
0.7219
0.7219
0.7219
0.6961
0.6961
0.6832
0.6832
0.6832
0.6961
0.6961
0.709
0.709
0.6832
0.6832
0.6703
0.6703
0.6832
0.6961
0.6961
0.6961
0.6832
0.6703
0.6574
0.6574
0.6703
0.6832
0.6832
0.6832
0.6832
0.6574
0.6574
0.6574
0.6574
0.6703
0.6832
0.6832
0.6832
0.6703
0.6703
0.6574
0.6703
0.6703
0.6832
0.6961
0.6961
0.6832
0.6703
0.6574
0.6703
0.6832
0.6961
0.6961
0.709
0.6961
0.6832
0.6832
0.6703
0.6832
0.6961
0.6961
0.709
0.709
0.6961
0.6832
0.6703
0.6703
0.6703
0.6832
0.6832
0.6703
0.6703
0.6445
0.6316
0.6316
0.6316
0.6316
0.6445
0.6445
0.6316
0.6187
0.6059
0.6059
0.6059
0.6059
0.6187
0.6187
0.6187
0.6059
0.593
0.593
0.593
0.5801
0.6059
0.6059
0.6059
0.593
0.593
0.5801
0.5672
0.5801
0.593
0.593
0.6059
0.593
0.5801
0.5672
0.5672
0.5672
0.5801
0.5801
0.593
0.5801
0.5801
0.5672
0.5543
0.5543
0.5801
0.593
0.6059
0.6187
0.6445
0.6574
0.6961
0.7348
0.7992
0.8766
0.9539
0.9926
1.0184
1.0184
0.9926
0.941
0.9023
0.8637
0.8121
0.7605
0.709
0.6445
0.6059
0.5801
0.5543
0.5543
0.5672
0.5801
0.5672
0.5672
0.5672
0.5543
0.5543
0.5543
0.5543
0.5672
0.5801
0.5801
0.5672
0.5543
0.5543
0.5543
0.5672
0.5672
0.5801
0.5801
0.5801
0.5543
0.5543
0.5672
0.5672
0.5672
0.5801
0.593
0.5801
0.5672
0.5672
0.5543
0.5672
0.5672
0.5801
0.593
0.593
0.5801
0.5801
0.5672
0.5672
0.5801
0.593
0.593
0.593
0.593
0.5801
0.5801
0.5801
0.5801
0.593
0.6059
0.6187
0.6187
0.6059
0.593
0.593
0.593
0.6187
0.6187
0.6316
0.6316
0.6316
0.6316
0.6187
0.6187
0.6316
0.6445
0.6574
0.6703
0.6574
0.6574
0.6445
0.6445
0.6445
0.6703
0.6832
0.6961
0.6832
0.6832
0.6703
0.6703
0.6703
0.6832
0.6961
0.709
0.709
0.709
0.6961
0.6961
0.6961
0.6961
0.709
0.7219
0.7219
0.7219
0.709
0.6961
0.6832
0.6832
0.6832
0.6961
0.6961
0.6961
0.6832
0.6574
0.6445
0.6316
0.6316
0.6445
0.6445
0.6316
0.6187
0.6059
0.5801
0.5672
0.5672
0.5801
0.5801
0.5801
0.5672
0.5543
0.5285
0.5156
0.5156
0.5156
0.5285
0.5285
0.5285
0.5156
0.5156
0.4898
0.4898
0.5027
0.5027
0.5027
0.5156
0.5156
0.5027
0.4898
0.4898
0.4898
0.5027
0.5027
0.5156
0.5027
0.5027
0.4898
0.477
0.477
0.4898
0.5027
0.5156
0.5027
0.4898
0.4898
0.477
0.477
0.4898
0.4898
0.5027
0.5027
0.5027
0.5027
0.4898
0.477
0.477
0.4898
0.5027
0.5156
0.5156
0.5027
0.4898
0.4898
0.4898
0.4898
0.5027
0.5156
0.5156
0.5156
0.5027
0.4898
0.5027
0.4898
0.5027
0.5156
0.5027
0.5156
0.5156
0.5027
0.4898
0.4898
0.5027
0.5156
0.5156
0.5156
0.5156
0.5027
0.4898
0.4898
0.4898
0.5027
0.5156
0.5027
0.5156
0.5027
0.4898
0.4898
0.4898
0.4898
0.5027
0.5156
0.5156
0.5156
0.5027
0.4898
0.4898
0.5027
0.5027
0.5156
0.5156
0.5156
0.4898
0.4898
0.477
0.4898
0.5027
0.5027
0.5156
0.5027
0.5027
0.4898
0.4898
0.4898
0.4898
0.5027
0.5156
0.5156
0.5027
0.4898
0.4898
0.477
0.4898
0.5027
0.5027
0.5027
0.5027
0.5027
0.4898
0.477
0.4898
0.4898
0.5027
0.5156
0.5156
0.5027
0.5027
0.477
0.477
0.4898
0.4898
0.5156
0.5156
0.5027
0.5027
0.4898
0.4898
0.4898
0.5027
0.5156
0.5156
0.5156
0.5027
0.4898
0.4898
0.4898
0.5027
0.5156
0.5156
0.5156
0.5027
0.5027
0.4898
0.4898
0.4898
0.5027
0.5156
0.5156
0.5156
0.5156
0.5027
0.5027
0.5156
0.5285
0.5414
0.5414
0.5414
0.5414
0.5285
0.5285
0.5285
0.5414
0.5543
0.5672
0.5672
0.5672
0.5543
0.5414
0.5414
0.5543
0.5672
0.5672
0.5801
0.5801
0.5801
0.5672
0.5672
0.5543
0.5672
0.5801
0.5801
0.5801
0.5672
0.5543
0.5414
0.5285
0.5285
0.5414
0.5543
0.5414
0.5414
0.5156
0.5156
0.5156
0.5027
0.5156
0.5285
0.5285
0.5285
0.5156
0.5027
0.5027
0.5027
0.5027
0.5285
0.5285
0.5285
0.5156
0.5027
0.5027
0.5027
0.5027
0.5156
0.5285
0.5285
0.5285
0.5156
0.5156
0.5027
0.5156
0.5156
0.5285
0.5414
0.5285
0.5285
0.5027
0.5027
0.5027
0.5156
0.5285
0.5414
0.5414
0.5543
0.5543
0.5672
0.6059
0.6445
0.6961
0.7605
0.8379
0.8895
0.941
0.9668
0.9668
0.9539
0.9281
0.9023
0.8508
0.7863
0.7219
0.6574
0.6059
0.5672
0.5414
0.5414
0.5414
0.5414
0.5285
0.5285
0.5156
0.5156
0.5156
0.5414
0.5414
0.5543
0.5543
0.5414
0.5285
0.5285
0.5285
0.5414
0.5543
0.5543
0.5543
0.5543
0.5414
0.5414
0.5414
0.5414
0.5543
0.5672
0.5672
0.5672
0.5543
0.5543
0.5543
0.5414
0.5672
0.5801
0.5801
0.5801
0.5801
0.5672
0.5672
0.5543
0.5672
0.5801
0.593
0.593
0.593
0.5801
0.5801
0.5672
0.5801
0.593
0.6059
0.6059
0.6059
0.593
0.593
0.593
0.593
0.6059
0.6187
0.6187
0.6316
0.6187
0.6187
0.6187
0.6187
0.6316
0.6445
0.6574
0.6574
0.6574
0.6445
0.6574
0.6445
0.6574
0.6703
0.6832
0.6961
0.6961
0.6961
0.6832
0.6832
0.6832
0.6961
0.709
0.7219
0.7348
0.7219
0.7219
0.709
0.709
0.7219
0.7348
0.7477
0.7477
0.7477
0.7348
0.7219
0.7219
0.7219
0.7219
0.7477
0.7477
0.7348
0.7219
0.709
0.6961
0.6832
0.6961
0.6961
0.6961
0.6961
0.6703
0.6574
0.6445
0.6316
0.6316
0.6316
0.6445
0.6187
0.6187
0.6059
0.593
0.5801
0.5672
0.5672
0.5801
0.593
0.593
0.5672
0.5543
0.5543
0.5543
0.5543
0.5543
0.5672
0.5672
0.5672
0.5543
0.5414
0.5414
0.5414
0.5543
0.5672
0.5672
0.5672
0.5672
0.5414
0.5414
0.5414
0.5543
0.5543
0.5672
0.5672
0.5543
0.5543
0.5414
0.5414
0.5414
0.5543
0.5672
0.5801
0.5672
0.5672
0.5543
0.5543
0.5543
0.5672
0.5801
0.5801
0.593
0.5801
0.5543
0.5543
0.5543
0.5543
0.5801
0.5801
0.5801
0.5801
0.5672
0.5672
0.5543
0.5672
0.5801
0.593
0.593
0.593
0.593
0.5672
0.5801
0.5672
0.5801
0.593
0.6059
0.593
0.593
0.5801
0.5801
0.5672
0.5672
0.6059
0.6059
0.6059
0.593
0.5801
0.5801
0.5672
0.5801
0.593
0.6059
0.6059
0.593
0.593
0.593
0.5801
0.5672
0.5801
0.593
0.6059
0.6059
0.593
0.593
0.5801
0.5672
0.5801
0.593
0.6059
0.6187
0.6059
0.593
0.5801
0.5801
0.593
0.593
0.6059
0.6059
0.6059
0.6059
0.593
0.5801
0.5801
0.593
0.593
0.6059
0.6059
0.6059
0.593
0.593
0.5801
0.593
0.593
0.6059
0.6187
0.6187
0.6059
0.593
0.5801
0.5801
0.593
0.6059
0.6187
0.6187
0.6187
0.6059
0.593
0.593
0.593
0.593
0.6059
0.6187
0.6187
0.6059
0.593
0.6059
0.593
0.6059
0.6059
0.6187
0.6187
0.6187
0.6059
0.593
0.593
0.6059
0.6187
0.6187
0.6316
0.6187
0.6059
0.6059
0.593
0.6059
0.6059
0.6187
0.6316
0.6316
0.6187
0.6059
0.6059
0.6059
0.6059
0.6187
0.6316
0.6316
0.6187
0.6187
0.6187
0.6059
0.6187
0.6316
0.6445
0.6445
0.6445
0.6445
0.6316
0.6316
0.6316
0.6445
0.6574
0.6703
0.6703
0.6703
0.6574
0.6574
0.6574
0.6703
0.6703
0.6832
0.6832
0.6832
0.6832
0.6703
0.6703
0.6832
0.6832
0.6961
0.6961
0.6961
0.6703
0.6703
0.6574
0.6445
0.6574
0.6703
0.6703
0.6574
0.6445
0.6316
0.6316
0.6187
0.6316
0.6316
0.6445
0.6445
0.6445
0.6316
0.6187
0.6187
0.6187
0.6316
0.6445
0.6445
0.6445
0.6316
0.6187
0.6187
0.6059
0.6187
0.6316
0.6316
0.6445
0.6187
0.6187
0.6059
0.6059
0.6187
0.6316
0.6445
0.6445
0.6316
0.6316
0.6187
0.6187
0.6187
0.6187
0.6316
0.6445
0.6445
0.6445
0.6316
0.6445
0.6574
0.6832
0.7219
0.7734
0.825
0.8766
0.9152
0.9797
1.0313
1.0699
1.0957
1.0957
1.0699
1.0313
0.9668
0.9023
0.8508
0.7863
0.7477
0.7219
0.6961
0.6832
0.6703
0.6574
0.6445
0.6445
0.6445
0.6703
0.6703
0.6703
0.6703
0.6574
0.6445
0.6574
0.6574
0.6703
0.6703
0.6961
0.6832
0.6703
0.6703
0.6574
0.6703
0.6703
0.6832
0.6961
0.6961
0.6961
0.6832
0.6832
0.6703
0.6832
0.6961
0.709
0.709
0.709
0.6961
0.6961
0.6832
0.6961
0.709
0.7219
0.7219
0.7219
0.7219
0.709
0.709
0.709
0.709
0.7348
0.7348
0.7477
0.7348
0.7348
0.7219
0.7219
0.7348
0.7477
0.7605
0.7605
0.7605
0.7605
0.7477
0.7477
0.7477
0.7605
0.7734
0.7863
0.7992
0.7863
0.7734
0.7863
0.7863
0.7863
0.7992
0.8121
0.825
0.825
0.825
0.8121
0.825
0.8121
0.8379
0.8508
0.8637
0.8637
0.8637
0.8508
0.8508
0.8508
0.8637
0.8637
0.8766
0.8895
0.8766
0.8766
0.8637
0.8637
0.8766
0.8895
0.9023
0.9023
0.8895
0.8895
0.8637
0.8637
0.8508
0.8637
0.8637
0.8637
0.8637
0.8508
0.825
0.8121
0.7992
0.7992
0.8121
0.8121
0.7992
0.7863
0.7734
0.7605
0.7477
0.7477
0.7477
0.7477
0.7477
0.7348
0.7348
0.7219
0.709
0.709
0.709
0.7348
0.7348
0.7219
0.7219
0.709
0.6961
0.6961
0.6961
0.709
0.7219
0.7219
0.7219
0.709
0.6961
0.6961
0.6961
0.709
0.7219
0.7219
0.7219
0.709
0.6961
0.6961
0.6961
0.709
0.7219
0.7348
0.7348
0.7219
0.7219
0.709
0.709
0.709
0.7219
0.7348
0.7348
0.7348
0.7219
0.709
0.709
0.7219
0.7219
0.7348
0.7477
0.7477
0.7348
0.7348
0.7219
0.7219
0.7219
0.7348
0.7477
0.7477
0.7477
0.7477
0.7348
0.7219
0.7219
0.7477
0.7477
0.7477
0.7477
0.7477
0.7348
0.7219
0.7348
0.7348
0.7477
0.7605
0.7605
0.7477
0.7477
0.7348
0.7348
0.7348
0.7477
0.7605
0.7605
0.7605
0.7477
0.7477
0.7348
0.7348
0.7477
0.7605
0.7734
0.7605
0.7605
0.7477
0.7348
0.7477
0.7477
0.7477
0.7605
0.7605
0.7605
0.7477
0.7477
0.7477
0.7477
0.7605
0.7605
0.7734
0.7605
0.7605
0.7477
0.7477
0.7477
0.7605
0.7605
0.7734
0.7734
0.7605
0.7605
0.7477
0.7477
0.7605
0.7734
0.7734
0.7863
0.7734
0.7605
0.7477
0.7477
0.7605
0.7605
0.7734
0.7863
0.7863
0.7734
0.7605
0.7605
0.7605
0.7734
0.7734
0.7863
0.7863
0.7863
0.7734
0.7605
0.7605
0.7605
0.7734
0.7863
0.7863
0.7734
0.7734
0.7605
0.7605
0.7605
0.7734
0.7863
0.7863
0.7863
0.7863
0.7734
0.7605
0.7605
0.7734
0.7863
0.7992
0.7992
0.7863
0.7863
0.7734
0.7734
0.7734
0.7992
0.8121
0.8121
0.8121
0.7992
0.7992
0.7992
0.7992
0.8121
0.825
0.825
0.8379
0.8379
0.825
0.8121
0.8121
0.825
0.8379
0.8508
0.8508
0.8508
0.8379
0.8379
0.825
0.825
0.8379
0.8379
0.8508
0.8508
0.8379
0.8121
0.8121
0.7992
0.7992
0.8121
0.8121
0.8121
0.8121
0.7992
0.7863
0.7863
0.7863
0.7863
0.8121
0.8121
0.7992
0.7992
0.7863
0.7734
0.7734
0.7863
0.7992
0.8121
0.7992
0.7992
0.7863
0.7734
0.7734
0.7863
0.7992
0.7992
0.7992
0.7992
0.7992
0.7863
0.7734
0.7863
0.7863
0.8121
0.8121
0.8121
0.7992
0.7863
0.7863
0.7863
0.7992
0.8121
0.825
0.8508
0.8508
0.8637
0.8766
0.9152
0.9668
1.0313
1.1086
1.1602
1.2117
1.2246
1.2117
1.2117
1.173
1.1473
1.1086
1.0441
1.0055
0.941
0.9023
0.8637
0.8379
0.825
0.8379
0.8379
0.8379
0.825
0.825
0.8121
0.8121
0.8121
0.8379
0.8379
0.8508
0.8379
0.825
0.825
0.825
0.825
0.8379
0.8508
0.8637
0.8637
0.8508
0.8379
0.8379
0.8379
0.8379
0.8508
0.8637
0.8637
0.8637
0.8508
0.8508
0.8508
0.8508
0.8637
0.8766
0.8895
0.8766
0.8766
0.8637
0.8637
0.8637
0.8766
0.8895
0.8895
0.9023
0.9023
0.8895
0.8766
0.8895
0.8895
0.9023
0.9152
0.9152
0.9152
0.9152
0.9023
0.9023
0.9023
0.9281
0.941
0.941
0.941
0.941
0.941
0.9281
0.9281
0.941
0.9539
0.9668
0.9797
0.9797
0.9539
0.9539
0.9668
0.9668
0.9797
0.9926
1.0055
1.0055
1.0055
1.0055
0.9926
1.0055
1.0184
1.0313
1.0441
1.0441
1.0313
1.0313
1.0184
1.0184
1.0184
1.0441
1.057
1.057
1.057
1.057
1.0441
1.0441
1.0313
1.0441
1.057
1.057
1.057
1.0313
1.0184
1.0055
1.0055
1.0055
1.0055
1.0184
1.0055
0.9926
0.9668
0.9539
0.941
0.941
0.941
0.941
0.941
0.9281
0.9152
0.9023
0.8895
0.8766
0.8895
0.9023
0.9152
0.9023
0.8895
0.8766
0.8637
0.8637
0.8637
0.8766
0.8766
0.8766
0.8766
0.8766
0.8637
0.8508
0.8508
0.8766
0.8766
0.8766
0.8766
0.8637
0.8637
0.8508
0.8508
0.8637
0.8766
0.8895
0.8766
0.8766
0.8637
0.8508
0.8508
0.8637
0.8766
0.8895
0.8895
0.8895
0.8766
0.8766
0.8637
0.8637
0.8766
0.8895
0.8895
0.8895
0.8895
0.8766
0.8637
0.8637
0.8766
0.8766
0.8895
0.8895
0.8895
0.8766
0.8766
0.8637
0.8766
0.8766
0.9023
0.9023
0.9023
0.8895
0.8766
0.8766
0.8766
0.8895
0.8895
0.9023
0.9023
0.8895
0.8895
0.8766
0.8766
0.8895
0.8895
0.9023
0.9023
0.9023
0.8895
0.8766
0.8766
0.8766
0.8766
0.9023
0.9023
0.9023
0.9023
0.8895
0.8766
0.8766
0.8766
0.9023
0.9023
0.9023
0.9023
0.8895
0.8895
0.8766
0.8766
0.8895
0.9023
0.9023
0.9023
0.9023
0.8766
0.8766
0.8766
0.8895
0.9023
0.9023
0.9023
0.9023
0.8895
0.8766
0.8766
0.8766
0.9023
0.9023
0.9023
0.9023
0.8895
0.8766
0.8766
0.8766
0.8766
0.8895
0.9023
0.9023
0.9023
0.8895
0.8895
0.8895
0.9023
0.9023
0.9152
0.9281
0.9152
0.9023
0.9023
0.9023
0.9152
0.9281
0.941
0.941
0.941
0.941
0.9281
0.9281
0.9281
0.941
0.9539
0.9668
0.9797
0.9668
0.9539
0.941
0.941
0.9539
0.9668
0.9668
0.9797
0.9668
0.9539
0.941
0.941
0.9281
0.941
0.9539
0.9539
0.941
0.9281
0.9152
0.9023
0.9023
0.9023
0.9152
0.9152
0.9152
0.9023
0.8895
0.8895
0.8895
0.9023
0.9152
0.9152
0.9152
0.9023
0.9023
0.8895
0.8895
0.8895
0.8895
0.9152
0.9152
0.9152
0.9023
0.9023
0.8895
0.8895
0.9023
0.9152
0.9281
0.9152
0.9152
0.9023
0.8895
0.8895
0.8895
0.9023
0.9152
0.9152
0.9152
0.9023
0.9023
0.9023
0.9152
0.941
0.9668
0.9926
1.0313
1.057
1.1086
1.1473
1.2117
1.2633
1.3148
1.3406
1.3277
1.302
1.2504
1.1859
1.1344
1.0828
1.0441
1.0184
0.9926
0.9668
0.941
0.9281
0.9152
0.9152
0.9152
0.941
0.941
0.941
0.9281
0.9281
0.9152
0.9152
0.9281
0.941
0.9539
0.9668
0.9539
0.941
0.941
0.9281
0.9281
0.941
0.9668
0.9668
0.9668
0.9668
0.941
0.941
0.941
0.9539
0.9668
0.9797
0.9797
0.9668
0.9539
0.9539
0.9539
0.9668
0.9797
0.9797
0.9926
0.9926
0.9797
0.9668
0.9668
0.9668
0.9797
0.9926
1.0055
1.0055
1.0055
0.9926
0.9926
0.9926
0.9926
1.0055
1.0184
1.0313
1.0184
1.0184
1.0055
1.0055
1.0184
1.0313
1.0441
1.057
1.057
1.0441
1.0313
1.0313
1.0441
1.057
1.057
1.0828
1.0828
1.0828
1.0699
1.0699
1.0699
1.0828
1.0957
1.1086
1.1215
1.1215
1.1215
1.0957
1.0957
1.1086
1.1215
1.1344
1.1344
1.1344
1.1344
1.1215
1.1086
1.1215
1.1215
1.1473
1.1473
1.1602
1.1473
1.1344
1.1086
1.1086
1.1086
1.1086
1.1215
1.1215
1.1086
1.0957
1.0699
1.057
1.057
1.057
1.0699
1.0699
1.057
1.0313
1.0184
1.0055
0.9926
1.0055
1.0055
0.9926
0.9926
0.9926
0.9797
0.9539
0.9539
0.9539
0.9668
0.9797
0.9668
0.9668
0.9668
0.9539
0.941
0.941
0.941
0.9539
0.9668
0.9668
0.9668
0.941
0.941
0.941
0.941
0.9539
0.9539
0.9668
0.9668
0.9539
0.9281
0.941
0.941
0.941
0.9539
0.9668
0.9668
0.9668
0.9539
0.941
0.941
0.941
0.9539
0.9668
0.9668
0.9668
0.9539
0.941
0.941
0.9539
0.9539
0.9668
0.9797
0.9668
0.9539
0.9539
0.941
0.9539
0.9539
0.9668
0.9668
0.9797
0.9668
0.9539
0.9539
0.941
0.9539
0.9668
0.9797
0.9797
0.9797
0.9668
0.9539
0.9539
0.9539
0.9668
0.9668
0.9797
0.9797
0.9668
0.9539
0.9539
0.9539
0.9539
0.9668
0.9797
0.9797
0.9797
0.9668
0.9539
0.9539
0.9539
0.9668
0.9797
0.9797
0.9797
0.9668
0.9539
0.941
0.9539
0.9668
0.9797
0.9797
0.9797
0.9668
0.9539
0.9539
0.9539
0.9539
0.9668
0.9797
0.9797
0.9797
0.9668
0.9539
0.9539
0.9539
0.9668
0.9668
0.9797
0.9797
0.9668
0.9539
0.9539
0.9539
0.9668
0.9668
0.9797
0.9797
0.9797
0.9668
0.9668
0.9668
0.9668
0.9797
0.9926
1.0055
0.9926
0.9926
0.9797
0.9797
0.9926
1.0055
1.0184
1.0313
1.0313
1.0184
1.0055
1.0055
1.0055
1.0055
1.0184
1.0313
1.0441
1.0313
1.0313
1.0184
1.0055
1.0055
1.0184
1.0313
1.0313
1.0184
1.0184
0.9926
0.9797
0.9797
0.9926
0.9926
0.9926
0.9926
0.9797
0.9797
0.9668
0.9539
0.9668
0.9668
0.9797
0.9797
0.9797
0.9668
0.9539
0.9539
0.9539
0.9668
0.9797
0.9797
0.9668
0.9668
0.9539
0.941
0.941
0.9539
0.9539
0.9797
0.9797
0.9668
0.9668
0.9539
0.9539
0.9539
0.9668
0.9668
0.9797
0.9668
0.9668
0.9539
0.941
0.941
0.9539
0.9668
0.9926
0.9926
0.9926
1.0055
1.0184
1.057
1.1086
1.1602
1.2246
1.2891
1.3406
1.3793
1.3922
1.3922
1.3793
1.3535
1.3148
1.2633
1.1988
1.1473
1.0828
1.0313
1.0055
0.9926
0.9797
0.9926
0.9797
0.9797
0.9668
0.9539
0.9668
0.9668
0.9797
0.9926
1.0055
0.9926
0.9797
0.9926
0.9797
0.9797
0.9926
1.0055
1.0184
1.0184
1.0055
0.9926
0.9797
0.9797
0.9926
1.0055
1.0055
1.0313
1.0184
1.0055
0.9926
0.9926
1.0055
1.0055
1.0313
1.0313
1.0313
1.0184
1.0055
1.0055
1.0184
1.0184
1.0313
1.0441
1.0441
1.0441
1.0313
1.0313
1.0313
1.0313
1.0441
1.057
1.057
1.057
1.057
1.057
1.0441
1.0441
1.057
1.0828
1.0957
1.0828
1.0828
1.0699
1.0699
1.0699
1.0828
1.0957
1.1086
1.1215
1.1086
1.1086
1.1086
1.1086
1.1086
1.1215
1.1344
1.1602
1.1473
1.1473
1.1344
1.1473
1.1344
1.1473
1.173
1.1859
1.173
1.173
1.1602
1.1602
1.1602
1.173
1.1859
1.1859
1.1988
1.1859
1.1859
1.173
1.1602
1.173
1.1859
1.1988
1.1988
1.1859
1.173
1.1473
1.1473
1.1344
1.1344
1.1344
1.1344
1.1344
1.1086
1.0957
1.0828
1.0699
1.0699
1.0699
1.0828
1.0828
1.0699
1.0441
1.0313
1.0184
1.0184
1.0184
1.0313
1.0441
1.0313
1.0184
1.0055
0.9926
0.9926
1.0055
1.0184
1.0313
1.0184
1.0184
0.9926
0.9926
0.9797
0.9797
0.9926
1.0055
1.0184
1.0055
1.0055
0.9797
0.9797
0.9926
0.9926
1.0055
1.0184
1.0055
1.0055
0.9926
0.9926
0.9797
0.9926
1.0055
1.0184
1.0055
1.0055
0.9926
0.9797
0.9926
1.0055
1.0055
1.0184
1.0184
1.0184
1.0055
1.0055
0.9926
0.9926
1.0055
1.0184
1.0313
1.0313
1.0184
1.0055
1.0055
1.0055
1.0184
1.0184
1.0313
1.0313
1.0313
1.0184
1.0055
1.0055
1.0055
1.0184
1.0313
1.0313
1.0313
1.0313
1.0184
1.0055
1.0184
1.0055
1.0313
1.0313
1.0313
1.0313
1.0184
1.0055
1.0055
1.0055
1.0184
1.0184
1.0313
1.0313
1.0184
1.0055
1.0055
1.0055
1.0184
1.0313
1.0313
1.0313
1.0313
1.0055
0.9926
1.0055
1.0055
1.0184
1.0313
1.0313
1.0313
1.0184
1.0055
0.9926
1.0055
1.0184
1.0313
1.0313
1.0313
1.0313
1.0055
1.0055
1.0055
1.0184
1.0313
1.0313
1.0313
1.0313
1.0184
1.0055
1.0055
1.0184
1.0184
1.0313
1.0313
1.0313
1.0184
1.0184
1.0055
1.0184
1.0184
1.0313
1.0441
1.0441
1.0441
1.0313
1.0313
1.0313
1.0441
1.0441
1.057
1.0699
1.0699
1.057
1.057
1.057
1.057
1.0699
1.0828
1.0828
1.0828
1.0828
1.0699
1.0699
1.0699
1.0828
1.0957
1.0957
1.0957
1.0957
1.0828
1.0699
1.057
1.057
1.0699
1.0828
1.0828
1.057
1.057
1.0313
1.0313
1.0313
1.0313
1.0441
1.0441
1.0441
1.0313
1.0184
1.0184
1.0055
1.0184
1.0184
1.0313
1.0313
1.0313
1.0184
1.0055
1.0055
1.0055
1.0184
1.0313
1.0441
1.0313
1.0313
1.0184
1.0055
1.0055
1.0184
1.0313
1.0313
1.0313
1.0313
1.0184
1.0055
1.0055
1.0055
1.0184
1.0313
1.0313
1.0313
1.0184
1.0055
1.0055
1.0184
1.0441
1.0699
1.0957
1.1215
1.1473
1.173
1.2117
1.2762
1.3535
1.418
1.4824
1.5082
1.4824
1.4566
1.418
1.3664
1.3148
1.2633
1.2117
1.1602
1.1086
1.0699
1.0441
1.0313
1.0184
1.0313
1.0313
1.0441
1.0441
1.0441
1.0313
1.0313
1.0313
1.0313
1.0441
1.057
1.0699
1.0699
1.057
1.0441
1.0313
1.0441
1.057
1.0699
1.0699
1.0699
1.057
1.0441
1.0441
1.0441
1.057
1.0699
1.0828
1.0828
1.0699
1.0699
1.057
1.057
1.0699
1.0828
1.0957
1.0957
1.0957
1.0828
1.0699
1.0828
1.0828
1.0828
1.1086
1.1086
1.1086
1.1086
1.0957
1.0828
1.0957
1.0957
1.1215
1.1215
1.1344
1.1344
1.1215
1.1086
1.1086
1.1215
1.1344
1.1344
1.1473
1.1473
1.1473
1.1344
1.1344
1.1473
1.1473
1.173
1.1859
1.1859
1.1859
1.173
1.173
1.173
1.1859
1.1988
1.2117
1.2246
1.2246
1.2117
1.2117
1.2117
1.2117
1.2375
1.2504
1.2504
1.2504
1.2504
1.2375
1.2375
1.2375
1.2375
1.2504
1.2633
1.2633
1.2633
1.2375
1.2246
1.2246
1.2246
1.2375
1.2375
1.2375
1.2246
1.2117
1.1988
1.173
1.173
1.173
1.173
1.1859
1.173
1.1602
1.1344
1.1215
1.1086
1.1086
1.1086
1.1215
1.1215
1.1086
1.0957
1.0699
1.0699
1.0699
1.0699
1.0828
1.0828
1.0828
1.0699
1.057
1.0441
1.0441
1.0441
1.057
1.0699
1.0828
1.057
1.057
1.0441
1.0313
1.0441
1.057
1.0699
1.0699
1.0699
1.057
1.0441
1.0441
1.0441
1.057
1.0699
1.0699
1.0699
1.057
1.057
1.0441
1.0441
1.057
1.057
1.0699
1.0699
1.0699
1.0699
1.0441
1.057
1.057
1.0699
1.0828
1.0699
1.0828
1.0699
1.0699
1.057
1.057
1.057
1.0828
1.0828
1.0828
1.0828
1.0699
1.057
1.057
1.0699
1.0828
1.0828
1.0957
1.0828
1.0699
1.0699
1.057
1.0699
1.0699
1.0828
1.0957
1.0957
1.0828
1.0699
1.0699
1.057
1.0699
1.0828
1.0828
1.0828
1.0957
1.0828
1.0699
1.057
1.0699
1.0699
1.0828
1.0957
1.0828
1.0699
1.0699
1.0699
1.0699
1.0699
1.0699
1.0828
1.0828
1.0699
1.0699
1.057
1.057
1.0699
1.0828
1.0828
1.0828
1.0828
1.0699
1.057
1.057
1.0699
1.0828
1.0828
1.0828
1.0828
1.0699
1.057
1.057
1.057
1.0699
1.0699
1.0828
1.0828
1.0828
1.0699
1.057
1.057
1.057
1.0699
1.0828
1.0828
1.0828
1.0828
1.057
1.0699
1.0699
1.0699
1.0828
1.0957
1.1086
1.0957
1.0828
1.0828
1.0828
1.0957
1.1086
1.1086
1.1215
1.1086
1.1086
1.1086
1.1086
1.1086
1.1215
1.1344
1.1344
1.1344
1.1215
1.1086
1.1086
1.1086
1.1215
1.1344
1.1473
1.1473
1.1344
1.1215
1.1086
1.0957
1.0957
1.1086
1.1215
1.1215
1.1086
1.0957
1.0828
1.0699
1.057
1.0699
1.0828
1.0828
1.0828
1.0828
1.0699
1.057
1.0441
1.057
1.0699
1.0699
1.0699
1.0699
1.057
1.0441
1.0441
1.057
1.057
1.057
1.0699
1.0699
1.057
1.0441
1.0441
1.0441
1.0441
1.0699
1.0699
1.0699
1.0699
1.057
1.0441
1.0441
1.057
1.0699
1.0828
1.0828
1.0699
1.057
1.0441
1.0441
1.057
1.0828
1.0957
1.1215
1.1473
1.173
1.1988
1.2504
1.3148
1.3793
1.4437
1.5082
1.534
1.534
1.4953
1.4566
1.4051
1.3535
1.302
1.2504
1.1988
1.1602
1.1086
1.0828
1.057
1.057
1.057
1.0699
1.0828
1.0828
1.0828
1.0699
1.057
1.057
1.0699
1.0828
1.0957
1.0957
1.0957
1.0828
1.0699
1.0699
1.0699
1.0828
1.0957
1.1086
1.1086
1.0957
1.0957
1.0828
1.0828
1.0957
1.1086
1.1086
1.1086
1.1086
1.0957
1.0957
1.0957
1.1086
1.1086
1.1215
1.1215
1.1215
1.1086
1.1086
1.0957
1.1086
1.1215
1.1344
1.1473
1.1473
1.1344
1.1215
1.1215
1.1215
1.1344
1.1473
1.1473
1.1602
1.1473
1.1473
1.1473
1.1344
1.1473
1.1602
1.173
1.1859
1.173
1.173
1.1602
1.1602
1.173
1.1859
1.1988
1.2117
1.2246
1.2117
1.2117
1.1988
1.1988
1.2117
1.2246
1.2375
1.2504
1.2504
1.2375
1.2375
1.2375
1.2375
1.2504
1.2633
1.2762
1.2762
1.2633
1.2633
1.2633
1.2504
1.2633
1.2762
1.2891
1.2891
1.2891
1.2762
1.2633
1.2504
1.2504
1.2633
1.2633
1.2633
1.2504
1.2246
1.2117
1.1988
1.1859
1.1988
1.1988
1.1988
1.1859
1.173
1.1602
1.1344
1.1344
1.1344
1.1344
1.1344
1.1344
1.1215
1.0957
1.0828
1.0828
1.0828
1.0957
1.0957
1.0957
1.0957
1.0828
1.0699
1.0699
1.057
1.0699
1.0699
1.0828
1.0828
1.0828
1.0699
1.057
1.057
1.057
1.0699
1.0828
1.0828
1.0828
1.0828
1.0699
1.057
1.057
1.0699
1.0828
1.0957
1.0828
1.0828
1.0699
1.057
1.057
1.0699
1.0828
1.0957
1.0957
1.0957
1.0828
1.0699
1.0699
1.0699
1.0828
1.0957
1.0957
1.0957
1.0828
1.0699
1.0699
1.0699
1.0828
1.0957
1.0957
1.0957
1.0828
1.0828
1.0699
1.0699
1.0699
1.0828
1.1086
1.1086
1.0957
1.0828
1.0828
1.0699
1.0699
1.0828
1.0828
1.0957
1.0957
1.0957
1.0828
1.0699
1.0828
1.0828
1.0957
1.0957
1.1086
1.0957
1.0828
1.0828
1.0699
1.0828
1.0957
1.0957
1.0957
1.0957
1.0957
1.0828
1.0828
1.0699
1.0828
1.0957
1.0957
1.0957
1.0957
1.0828
1.0828
1.0699
1.0828
1.0957
1.0957
1.1086
1.0957
1.0828
1.0699
1.0699
1.0699
1.0828
1.0957
1.0957
1.0957
1.0957
1.0828
1.0699
1.0699
1.0828
1.0957
1.0957
1.0957
1.0957
1.0828
1.0699
1.0699
1.0699
1.0957
1.0957
1.0957
1.0957
1.0828
1.0828
1.0699
1.0699
1.0828
1.1086
1.1086
1.1086
1.0957
1.0828
1.0699
1.0828
1.0828
1.0957
1.1086
1.1086
1.0957
1.0957
1.0828
1.0828
1.0828
1.0957
1.1215
1.1086
1.1344
1.1215
1.1086
1.0957
1.1086
1.1086
1.1215
1.1344
1.1473
1.1473
1.1215
1.1215
1.1215
1.1215
1.1473
1.1473
1.1473
1.1602
1.1473
1.1344
1.1344
1.1344
1.1473
1.1602
1.1473
1.1602
1.1344
1.1344
1.1215
1.1215
1.1215
1.1344
1.1344
1.1215
1.1215
1.0957
1.0828
1.0828
1.0828
1.0957
1.1086
1.1086
1.0957
1.0957
1.0828
1.0699
1.0699
1.0828
1.0957
1.0957
1.0957
1.0957
1.0828
1.0699
1.0699
1.0699
1.0828
1.0957
1.1086
1.0957
1.0828
1.0828
1.0699
1.0699
1.0828
1.0957
1.0957
1.1086
1.0957
1.0828
1.0699
1.0828
1.0828
1.0828
1.0957
1.0957
1.0957
1.0957
1.0957
1.1086
1.1344
1.173
1.2117
1.2633
1.3148
1.3664
1.418
1.4695
1.5211
1.534
1.5469
1.5211
1.4824
1.4309
1.3664
1.2891
1.2375
1.1859
1.1602
1.1473
1.1344
1.1086
1.0957
1.0828
1.0828
1.0828
1.0957
1.1086
1.1086
1.1215
1.1215
1.1086
1.0957
1.0957
1.1086
1.1215
1.1344
1.1215
1.1215
1.1086
1.1086
1.0957
1.1086
1.1215
1.1344
1.1344
1.1344
1.1215
1.1086
1.1086
1.1086
1.1086
1.1344
1.1344
1.1473
1.1344
1.1215
1.1215
1.1215
1.1344
1.1473
1.1473
1.1602
1.1602
1.1473
1.1344
1.1344
1.1473
1.1602
1.173
1.173
1.173
1.1602
1.1473
1.1473
1.1602
1.1602
1.173
1.1859
1.1859
1.1859
1.173
1.173
1.173
1.1859
1.1988
1.2117
1.2246
1.2246
1.2117
1.1988
1.1988
1.1988
1.2117
1.2375
1.2504
1.2504
1.2375
1.2375
1.2375
1.2375
1.2504
1.2762
1.2762
1.2762
1.2891
1.2762
1.2633
1.2762
1.2762
1.2891
1.302
1.3148
1.302
1.302
1.2891
1.2891
1.2891
1.302
1.3148
1.3148
1.3148
1.302
1.2891
1.2762
1.2762
1.2762
1.2762
1.2762
1.2762
1.2504
1.2375
1.2246
1.2117
1.2117
1.2117
1.2117
1.2117
1.1988
1.1859
1.1602
1.1473
1.1344
1.1473
1.1602
1.1602
1.1473
1.1473
1.1344
1.1215
1.1086
1.1086
1.1215
1.1344
1.1344
1.1215
1.1215
1.1086
1.0957
1.1086
1.1086
1.1215
1.1215
1.1215
1.1215
1.0957
1.0957
1.0957
1.0957
1.1086
1.1215
1.1086
1.1086
1.1086
1.0957
1.0957
1.0957
1.1086
1.1215
1.1215
1.1215
1.1086
1.1086
1.0957
1.0957
1.0957
1.1086
1.1344
1.1215
1.1215
1.1086
1.0957
1.0957
1.1086
1.1215
1.1215
1.1344
1.1344
1.1215
1.1086
1.1086
1.1215
1.1086
1.1344
1.1344
1.1344
1.1344
1.1215
1.1086
1.1086
1.1215
1.1344
1.1344
1.1344
1.1344
1.1215
1.1086
1.1086
1.1086
1.1215
1.1344
1.1473
1.1344
1.1344
1.1215
1.1086
1.1086
1.1215
1.1344
1.1344
1.1344
1.1344
1.1215
1.1086
1.1086
1.1086
1.1215
1.1344
1.1473
1.1344
1.1215
1.1086
1.1086
1.1086
1.1215
1.1344
1.1344
1.1344
1.1344
1.1086
1.1086
1.1086
1.1086
1.1215
1.1344
1.1344
1.1344
1.1215
1.1086
1.0957
1.1086
1.1086
1.1215
1.1344
1.1344
1.1215
1.1086
1.1086
1.1086
1.1215
1.1344
1.1344
1.1473
1.1344
1.1215
1.1086
1.1086
1.1215
1.1215
1.1344
1.1473
1.1344
1.1344
1.1215
1.1215
1.1215
1.1344
1.1473
1.1473
1.1473
1.1473
1.1473
1.1473
1.1473
1.1473
1.173
1.173
1.173
1.173
1.173
1.1602
1.1602
1.1602
1.1859
1.1988
1.1988
1.1988
1.1859
1.1859
1.173
1.173
1.1859
1.1859
1.1859
1.1859
1.173
1.1602
1.1473
1.1344
1.1473
1.1602
1.1602
1.1602
1.1473
1.1344
1.1215
1.1086
1.1086
1.1215
1.1344
1.1344
1.1344
1.1215
1.1086
1.1086
1.0957
1.1086
1.1215
1.1344
1.1344
1.1215
1.1086
1.1086
1.0957
1.1086
1.1215
1.1215
1.1344
1.1215
1.1215
1.1086
1.0957
1.1086
1.1086
1.1215
1.1344
1.1344
1.1215
1.1086
1.0957
1.0957
1.0957
1.1086
1.1215
1.1215
1.1215
1.1344
1.1215
1.1344
1.1602
1.1988
1.2504
1.3148
1.3664
1.4051
1.4566
1.4824
1.5211
1.5082
1.4953
1.4824
1.4309
1.3793
1.3148
1.2504
1.2117
1.1859
1.1602
1.1473
1.1473
1.1344
1.1215
1.1086
1.1086
1.1086
1.1086
1.1344
1.1344
1.1344
1.1215
1.1086
1.1086
1.1086
1.1215
1.1344
1.1473
1.1473
1.1473
1.1473
1.1215
1.1344
1.1344
1.1473
1.1473
1.1602
1.1602
1.1473
1.1344
1.1344
1.1344
1.1473
1.1602
1.1602
1.173
1.1602
1.1602
1.1473
1.1473
1.1602
1.173
1.173
1.1859
1.173
1.173
1.1602
1.1602
1.1602
1.173
1.1859
1.1988
1.1988
1.1859
1.173
1.173
1.173
1.173
1.1988
1.2117
1.2117
1.2117
1.1988
1.1988
1.1988
1.1988
1.2117
1.2246
1.2375
1.2375
1.2246
1.2246
1.2246
1.2117
1.2375
1.2504
1.2633
1.2633
1.2762
1.2504
1.2504
1.2633
1.2633
1.2891
1.2891
1.302
1.2891
1.2891
1.2762
1.2891
1.2891
1.302
1.3277
1.3277
1.3277
1.3148
1.3148
1.302
1.302
1.3148
1.3148
1.3148
1.3277
1.3148
1.2891
1.2891
1.2891
1.2762
1.2762
1.2762
1.2762
1.2633
1.2504
1.2246
1.2117
1.2117
1.1988
1.2117
1.2117
1.1988
1.1859
1.173
1.1602
1.1473
1.1473
1.1602
1.1602
1.1602
1.1473
1.1344
1.1215
1.1086
1.1215
1.1215
1.1344
1.1344
1.1344
1.1215
1.1086
1.0957
1.0957
1.1086
1.1215
1.1344
1.1344
1.1215
1.1086
1.1086
1.1086
1.1086
1.1215
1.1215
1.1344
1.1344
1.1086
1.1086
1.0957
1.1086
1.1215
1.1215
1.1344
1.1344
1.1344
1.1086
1.1086
1.0957
1.1215
1.1344
1.1344
1.1344
1.1344
1.1215
1.1086
1.1086
1.1215
1.1215
1.1344
1.1473
1.1344
1.1215
1.1215
1.1086
1.1215
1.1215
1.1344
1.1473
1.1344
1.1344
1.1344
1.1215
1.1086
1.1215
1.1344
1.1473
1.1473
1.1344
1.1344
1.1215
1.1215
1.1086
1.1215
1.1344
1.1473
1.1473
1.1344
1.1215
1.1086
1.1086
1.1215
1.1344
1.1473
1.1473
1.1344
1.1215
1.1086
1.1086
1.1215
1.1344
1.1344
1.1473
1.1344
1.1344
1.1215
1.1086
1.1086
1.1215
1.1344
1.1344
1.1344
1.1215
1.1215
1.1086
1.1086
1.1215
1.1344
1.1344
1.1473
1.1344
1.1215
1.1086
1.1086
1.1086
1.1215
1.1215
1.1344
1.1215
1.1215
